113
113
113
114
114
113
113
113
114
114
113
112
110
108
107
107
107
108
108
109
109
109
109
109
109
111
113
114
116
117
117
117
116
116
117
117
117
116
115
115
116
119
124
131
139
148
158
168
177
184
191
200
208
214
212
197
170
136
105
85
79
81
88
92
92
90
90
91
93
96
97
97
97
98
100
101
103
104
105
107
109
112
114
115
117
118
119
121
121
122
122
122
122
123
123
123
123
122
121
120
120
119
118
116
114
111
109
108
107
107
107
107
106
106
106
106
106
107
107
107
107
107
108
108
108
108
108
109
109
109
109
110
109
109
110
110
111
111
110
109
108
106
105
104
104
105
106
106
106
105
106
107
110
114
117
120
121
121
120
120
120
121
121
120
120
119
118
119
119
119
120
120
120
119
119
119
119
120
119
118
117
115
113
112
112
112
113
113
112
112
112
113
113
113
112
110
108
107
107
107
107
108
108
108
108
108
108
109
109
111
113
115
117
117
117
116
116
116
117
117
117
116
115
115
118
122
128
135
144
154
165
174
182
189
197
206
213
213
202
178
146
114
90
79
80
85
90
92
91
90
91
93
95
97
97
97
97
99
101
102
104
105
106
108
110
113
115
116
118
119
120
121
121
121
122
122
123
123
123
123
122
121
121
120
119
118
116
114
111
110
108
108
107
107
106
106
106
106
106
106
107
107
107
107
107
108
108
108
108
108
109
109
109
110
110
109
109
109
110
110
111
111
109
108
106
105
104
105
105
106
106
106
106
105
106
109
112
116
120
121
121
121
120
120
121
121
120
120
119
118
118
119
119
120
120
120
119
119
119
119
119
119
119
117
116
114
113
112
112
113
113
112
112
112
113
113
113
113
111
109
108
107
107
107
107
108
108
108
108
108
108
109
111
112
115
116
117
117
116
116
116
117
117
117
116
115
115
116
120
126
133
142
151
162
172
180
187
194
203
210
214
207
188
157
124
96
81
78
83
89
92
91
90
90
92
95
97
97
97
97
98
100
102
103
105
106
108
110
112
114
116
117
119
120
121
121
121
122
122
123
123
123
123
122
121
121
120
120
118
117
115
112
110
109
108
107
107
107
106
106
106
106
106
106
106
107
107
107
107
108
108
108
108
108
109
109
109
110
110
109
109
109
110
111
111
110
109
107
105
104
104
105
106
106
106
106
105
106
108
111
115
119
121
121
121
120
120
120
121
121
120
119
119
119
119
119
120
120
120
120
119
119
119
119
119
119
118
116
114
113
112
112
113
113
113
112
112
112
113
113
113
111
110
108
107
107
107
107
108
108
108
108
108
108
109
110
112
114
115
116
117
116
116
116
117
117
117
116
115
114
115
118
123
130
138
147
158
168
177
184
191
199
208
214
211
196
168
134
104
84
78
81
88
91
92
90
90
91
94
96
97
97
97
98
99
101
103
104
105
107
109
112
113
115
117
118
120
121
121
121
122
122
122
123
123
123
122
122
121
120
120
119
117
115
113
111
109
108
107
107
107
106
106
106
106
106
106
106
107
107
107
107
107
108
108
108
108
108
109
109
109
109
109
109
110
110
111
111
110
109
107
106
104
104
104
105
106
106
106
105
105
107
110
113
117
120
121
121
121
120
120
120
120
120
119
119
118
119
119
119
120
120
120
119
119
119
119
119
119
118
117
115
113
112
112
112
113
113
113
112
112
113
113
113
111
110
108
107
106
106
107
108
108
108
108
108
108
109
109
111
113
115
116
117
117
116
116
116
117
117
117
116
115
115
118
122
128
135
144
154
165
174
182
189
197
206
212
213
202
178
145
113
90
79
80
85
90
91
90
90
91
93
96
97
97
97
97
99
101
102
104
105
106
108
110
113
115
116
118
119
120
121
121
121
122
122
123
123
123
123
122
121
121
120
119
118
116
114
111
110
108
108
107
107
106
106
106
106
106
106
106
107
107
107
107
107
108
108
108
108
108
109
109
109
109
109
110
110
110
111
111
110
109
108
106
105
104
104
105
106
106
106
106
105
106
109
113
117
120
121
121
121
120
120
121
121
120
120
119
118
118
119
119
120
120
120
119
119
119
119
119
119
118
117
116
114
113
112
112
113
113
113
112
112
113
113
113
112
110
108
107
107
107
107
107
108
108
108
108
108
108
109
110
112
114
116
117
117
116
116
116
117
117
117
116
115
115
117
120
126
133
142
152
162
172
180
188
195
203
211
214
207
187
157
123
95
80
78
83
89
92
91
90
90
92
95
97
97
97
97
99
100
102
103
105
106
108
110
112
114
116
117
119
120
121
121
121
122
122
123
123
123
123
122
121
121
120
120
119
117
114
112
110
109
108
107
107
106
106
106
106
106
106
106
107
107
107
107
108
108
108
108
108
108
109
109
109
109
109
110
110
110
111
110
110
110
111
113
115
117
118
118
118
117
117
117
117
118
118
118
116
114
112
111
110
111
111
112
112
111
111
112
112
112
112
110
108
107
106
106
106
106
107
107
107
107
107
107
108
110
112
114
115
116
116
115
115
115
116
116
116
115
114
114
115
119
125
132
141
150
160
170
179
186
193
201
209
214
209
191
161
127
98
81
78
82
89
92
91
90
89
91
94
96
96
96
97
98
100
102
103
104
105
107
109
112
114
116
117
118
120
121
121
122
122
122
123
123
123
123
122
122
121
120
120
118
117
114
112
110
109
108
107
107
106
106
106
106
106
106
106
106
107
108
108
108
108
109
109
110
111
112
113
114
115
115
116
117
117
117
116
116
115
115
115
114
114
113
112
111
110
110
109
109
110
110
110
110
110
111
111
111
110
109
109
109
109
109
110
110
109
110
110
110
110
111
111
111
111
111
111
112
112
112
111
111
111
112
112
112
113
113
113
112
112
113
113
113
113
113
113
113
114
114
114
112
112
113
116
122
128
136
145
155
165
175
183
190
197
205
212
213
202
178
145
113
89
79
80
86
91
92
91
90
91
93
95
97
97
97
98
99
101
103
104
105
106
108
110
113
115
117
118
119
120
121
121
121
122
122
123
123
123
123
122
121
121
120
119
118
116
114
111
109
108
108
107
107
106
105
104
104
103
103
104
104
105
105
105
105
106
106
106
106
107
107
107
108
108
109
110
111
112
113
114
116
116
117
117
118
118
119
119
120
119
119
118
117
117
117
116
116
114
113
112
111
111
111
112
112
111
111
111
112
112
113
112
112
111
110
110
110
110
111
111
110
110
110
111
111
112
112
111
111
112
112
112
112
113
113
113
112
112
112
112
113
113
113
113
114
114
114
113
113
114
114
114
113
113
114
114
114
114
115
115
115
114
114
114
115
115
115
114
114
114
114
115
115
115
114
114
114
115
116
115
114
113
113
116
120
126
133
141
151
161
171
180
187
194
202
210
215
211
195
166
132
102
84
79
83
89
93
93
91
90
92
95
97
98
97
98
99
100
102
104
105
106
108
110
112
114
116
118
119
120
121
121
122
122
122
123
124
124
123
123
122
121
121
120
119
118
116
114
111
109
108
107
107
107
106
105
104
104
103
104
104
105
105
105
105
106
106
106
107
107
107
107
107
108
108
108
108
108
109
109
109
109
109
109
109
110
110
110
110
111
111
111
111
111
112
112
111
111
111
112
112
113
114
115
116
117
118
119
119
120
120
121
122
122
122
122
121
121
120
119
119
119
118
118
116
115
114
113
113
113
114
114
114
113
113
114
114
114
113
112
112
111
111
111
111
112
112
112
112
112
112
113
113
113
112
112
112
113
113
113
113
114
114
114
114
113
113
113
114
114
114
114
114
114
114
114
114
115
115
115
115
114
114
114
115
115
115
114
114
114
115
115
115
114
114
115
115
115
115
116
115
115
115
115
116
116
116
115
114
114
117
121
127
134
143
152
162
172
181
188
195
203
211
215
210
192
162
128
100
83
79
84
90
93
92
91
91
93
95
97
98
97
98
99
101
103
104
105
106
108
110
113
115
116
118
119
120
121
122
122
122
123
123
123
123
123
123
122
121
121
120
119
117
115
113
111
109
108
108
107
107
106
105
104
104
104
104
104
105
105
105
105
106
106
106
106
107
107
107
107
108
108
108
108
109
109
109
109
110
109
109
110
110
110
110
111
111
110
111
111
111
111
112
112
111
111
112
112
113
114
115
116
117
118
119
119
120
120
121
122
122
123
122
122
121
120
119
119
119
118
118
116
115
114
113
113
113
114
114
114
113
113
114
114
114
113
113
112
111
111
111
112
112
112
112
112
113
113
113
113
112
112
112
113
113
113
113
114
114
114
113
113
113
114
114
113
113
113
114
114
114
114
115
115
115
114
114
114
115
115
115
114
114
115
115
115
114
114
114
115
115
115
114
114
114
115
115
115
115
116
116
116
115
115
115
116
116
115
115
116
116
116
115
115
115
116
116
116
115
115
115
116
116
116
115
115
115
116
116
116
115
114
114
116
120
126
133
142
151
161
171
180
187
194
202
211
216
212
195
167
133
103
85
79
83
89
93
93
91
91
92
95
97
98
98
98
99
101
102
104
105
106
108
110
112
114
116
118
119
120
122
122
122
122
123
123
124
124
124
123
122
121
121
120
119
118
116
114
111
109
108
108
107
107
106
105
104
104
104
104
104
104
105
105
106
106
106
106
107
107
107
107
107
108
108
108
108
108
109
109
109
109
109
109
110
110
110
110
111
111
110
110
111
111
111
111
112
112
111
112
112
112
112
112
112
113
113
113
112
112
112
113
113
113
113
114
114
114
114
113
113
113
114
114
114
114
114
114
114
114
114
115
115
115
115
114
114
114
115
115
115
114
114
114
115
115
115
115
114
114
114
115
116
116
117
118
119
120
121
121
122
123
123
123
124
124
124
124
124
123
123
122
121
121
120
120
118
117
116
115
115
114
114
115
115
114
114
114
115
115
115
114
113
113
113
112
112
112
112
112
113
113
113
113
114
114
114
113
113
113
114
114
114
114
114
114
114
114
114
115
115
115
114
114
114
115
115
115
114
114
114
115
115
115
114
114
114
115
115
115
115
116
116
116
115
115
115
116
116
116
115
115
115
116
116
116
115
115
115
116
116
115
115
115
116
116
116
115
115
115
116
116
116
115
115
115
115
116
116
116
115
115
115
116
116
116
115
114
115
118
123
129
136
145
154
164
174
182
190
197
205
213
215
208
188
157
123
96
82
80
85
91
94
93
91
91
93
96
98
98
98
98
99
101
103
104
105
107
109
111
113
115
116
118
120
121
122
122
122
122
123
123
123
123
123
123
122
121
121
120
119
117
115
113
110
109
108
107
107
107
106
105
104
104
104
104
104
105
105
105
105
106
106
106
107
107
107
107
107
108
108
108
108
108
109
109
109
109
109
110
110
110
110
110
110
111
111
111
111
111
112
112
112
111
111
111
112
112
112
112
113
113
112
112
112
113
113
113
113
114
114
114
113
113
113
113
114
114
114
113
113
113
114
114
114
114
115
115
115
114
114
115
115
115
114
114
115
115
115
114
114
114
115
115
115
115
115
116
116
116
117
118
119
120
121
121
122
123
123
124
124
124
125
125
124
124
123
121
121
120
120
119
118
117
116
115
114
114
115
115
114
114
114
115
115
115
114
114
113
113
112
112
112
113
113
113
113
113
114
114
114
113
113
113
114
114
114
113
113
113
114
114
114
114
115
115
115
114
114
114
115
115
115
114
114
114
115
115
115
114
114
114
115
115
115
115
115
115
115
115
115
115
115
115
115
115
115
115
116
116
116
115
115
115
116
116
116
115
115
115
116
116
116
115
115
115
116
116
116
116
115
115
115
116
116
116
116
115
115
115
116
116
116
115
115
115
116
116
116
115
115
115
116
116
116
115
115
115
116
116
116
116
115
115
115
116
116
116
115
114
115
118
123
129
136
145
155
165
175
183
190
197
205
213
215
207
187
156
122
96
82
80
85
91
93
92
91
91
94
96
98
98
98
98
100
101
103
104
105
107
109
111
113
115
116
118
120
121
122
122
122
123
123
123
124
124
123
123
122
121
121
120
119
117
115
113
110
109
108
107
107
107
106
105
104
104
104
104
104
105
105
105
105
106
106
106
107
107
107
107
107
108
108
108
108
108
109
109
109
109
109
109
110
110
110
110
111
111
110
111
111
111
111
112
112
112
112
112
112
112
112
112
113
113
113
112
112
112
113
113
113
113
114
114
114
113
113
113
114
114
113
113
114
114
114
114
114
114
115
115
115
115
114
114
114
115
115
115
114
114
114
115
115
115
114
114
114
115
115
115
115
116
116
116
115
115
115
116
116
116
115
115
115
116
116
116
115
115
115
116
116
116
116
115
115
116
116
116
116
116
115
116
116
116
116
116
116
115
115
115
116
116
116
115
115
115
116
116
116
116
115
115
115
116
116
116
115
115
115
116
116
116
115
115
115
116
116
116
116
116
116
116
116
116
116
116
116
116
116
117
118
119
120
120
121
122
123
123
124
124
124
124
124
125
125
124
124
123
122
121
121
120
119
118
117
116
115
115
115
116
116
115
115
115
116
116
115
115
114
114
113
113
113
114
114
114
113
113
113
114
114
113
113
113
114
114
114
114
115
115
115
114
114
115
115
115
114
114
114
115
115
115
114
114
114
115
115
115
115
115
114
115
115
115
115
116
116
116
115
115
115
116
116
116
115
115
115
116
116
116
115
115
115
116
116
116
115
115
115
116
116
116
116
115
115
116
116
116
116
116
115
116
116
116
116
116
116
115
115
116
116
116
116
115
115
115
116
116
116
115
115
115
116
116
116
115
115
115
116
116
116
116
115
115
116
117
117
117
115
114
114
116
120
126
133
141
150
160
171
180
187
194
202
210
216
212
197
169
135
105
86
80
83
89
93
93
91
91
93
95
97
98
98
98
99
101
102
104
105
106
108
110
113
114
116
118
119
120
121
122
122
122
123
123
124
124
123
123
122
122
121
121
120
118
116
114
111
110
108
108
107
107
106
106
105
104
104
104
104
105
105
105
105
106
106
106
107
107
107
107
107
108
108
108
108
108
109
109
109
109
109
109
110
110
110
110
111
111
110
111
111
111
111
112
112
111
111
111
112
112
112
112
113
113
113
112
112
112
113
113
113
113
114
114
114
113
113
113
114
114
113
113
113
114
114
114
114
115
115
115
114
114
114
115
115
115
114
114
114
115
115
115
114
114
114
115
115
115
115
115
115
115
115
115
116
116
116
116
115
115
115
115
115
115
115
116
116
116
115
115
115
116
116
116
115
115
115
116
116
116
115
115
115
116
116
116
115
115
115
116
116
116
115
115
116
116
116
116
115
115
115
116
116
116
115
115
115
116
116
116
115
115
115
116
116
116
116
116
116
116
116
116
116
116
116
115
115
115
116
116
117
118
119
120
121
122
122
123
123
124
124
125
125
125
125
124
124
123
122
122
121
121
120
119
118
117
116
115
115
115
116
116
115
115
116
116
116
115
114
114
113
112
112
112
113
113
113
113
113
113
114
114
114
114
113
113
113
114
114
114
114
115
115
115
114
114
114
115
115
115
115
115
114
114
114
114
115
115
115
114
114
114
115
115
115
115
116
116
116
115
115
115
116
116
116
116
115
115
115
116
116
116
115
115
115
116
116
116
115
115
115
115
116
116
116
115
115
115
118
121
124
125
125
124
122
120
119
119
118
118
117
117
116
116
117
117
117
116
116
116
117
117
117
117
116
116
116
117
117
117
116
116
116
117
117
117
117
116
116
117
117
117
117
117
117
117
117
117
117
117
117
117
117
117
117
117
117
117
117
116
117
117
117
117
116
116
116
117
117
117
117
116
116
116
117
117
117
116
116
116
117
117
117
116
116
116
117
117
117
116
116
116
117
117
118
119
120
121
121
122
122
123
123
124
123
123
122
121
120
120
120
119
119
117
116
115
114
114
114
114
114
114
114
114
115
115
115
114
114
114
115
115
115
115
114
114
115
115
115
113
109
105
102
101
103
105
107
106
102
97
93
91
91
92
93
94
94
94
95
96
96
96
97
99
103
107
111
114
116
117
117
118
118
119
119
120
120
120
121
121
121
122
122
123
124
126
127
129
130
131
133
134
135
136
137
137
136
136
136
137
137
136
136
135
133
132
132
131
129
128
125
123
120
119
117
116
116
115
115
114
114
114
113
113
113
114
114
114
114
114
114
114
114
115
115
115
114
114
114
115
115
115
114
114
114
115
115
115
114
114
114
115
115
115
115
115
115
115
115
115
116
116
116
115
115
115
116
116
116
115
115
115
116
116
116
115
115
115
116
116
116
115
115
116
116
116
115
115
115
116
116
116
115
115
115
116
116
116
115
115
115
116
116
117
119
120
120
121
121
121
122
122
123
123
123
122
122
121
120
120
119
118
118
117
115
114
114
113
113
114
114
113
113
114
114
114
115
114
114
114
115
115
115
114
114
114
115
115
114
112
107
103
101
101
104
106
107
104
99
94
91
91
92
93
94
94
94
95
95
96
96
96
98
101
105
109
113
115
117
117
118
118
119
119
120
120
120
120
121
121
122
122
123
124
125
126
128
129
131
132
133
135
136
136
137
136
136
136
136
136
136
136
135
134
133
133
132
131
129
127
124
121
119
118
117
116
115
115
114
114
113
113
113
114
114
113
113
113
114
114
114
114
115
115
115
114
114
114
115
115
115
115
115
115
114
114
114
115
115
115
114
114
114
115
115
115
115
116
116
116
115
115
115
116
116
116
115
115
115
116
116
116
115
115
115
115
116
116
116
115
115
115
116
116
116
115
115
115
116
116
116
115
115
115
116
116
116
116
115
115
116
116
117
118
119
120
120
121
121
122
122
123
123
123
122
122
121
121
120
119
119
118
117
116
115
114
114
113
114
114
114
114
114
114
114
114
114
114
114
115
115
115
114
114
114
115
115
115
113
109
105
102
101
103
105
107
106
102
97
92
91
91
92
93
94
94
94
95
96
96
96
97
99
103
107
111
114
116
117
117
118
118
119
119
119
120
120
121
121
122
122
122
123
124
126
127
129
130
131
132
134
135
136
137
136
136
136
136
136
137
136
136
135
134
133
132
131
130
128
125
123
120
118
117
116
116
115
115
114
114
113
113
113
114
114
113
113
114
114
114
114
115
115
115
114
114
114
115
115
115
114
114
114
115
115
115
114
114
114
115
115
115
115
116
116
116
115
115
115
116
116
116
115
115
115
116
116
116
115
115
115
116
116
116
115
115
116
116
116
115
115
115
116
116
116
115
115
115
116
116
116
115
115
115
116
116
116
115
115
115
116
116
117
118
120
120
121
121
121
122
122
123
123
123
122
121
121
120
119
119
119
118
117
115
114
114
113
113
114
114
114
114
114
114
114
114
114
114
114
115
115
115
114
114
114
115
115
114
112
107
103
101
101
104
106
107
104
99
94
91
91
92
93
94
94
94
95
95
96
96
97
98
101
105
110
113
115
116
117
117
118
118
119
119
120
120
121
121
122
122
122
123
124
125
126
127
129
130
132
133
135
136
136
137
136
136
136
136
137
137
136
135
134
133
132
131
130
129
127
124
121
119
118
117
116
115
115
114
114
113
113
113
114
114
113
113
114
114
114
114
114
114
115
115
115
114
115
115
115
114
114
114
115
115
115
114
114
114
115
115
115
115
115
115
115
115
115
115
115
116
116
116
115
115
115
116
116
116
115
115
115
116
116
116
115
115
116
116
115
115
115
116
116
116
115
115
115
116
116
116
115
115
115
116
116
116
116
115
115
116
116
117
118
119
120
120
121
121
122
122
123
123
123
122
122
121
120
120
120
119
119
118
116
115
114
114
113
114
114
113
113
113
114
114
115
115
114
114
114
115
115
115
114
114
114
115
115
113
109
105
101
101
102
105
107
106
102
97
92
91
91
92
93
94
94
94
95
96
96
96
97
99
103
107
111
114
116
117
117
118
119
119
120
120
120
120
121
121
121
122
122
123
124
126
127
129
130
131
133
134
135
136
137
137
137
136
136
137
137
136
136
135
133
132
132
131
130
128
126
123
120
118
117
116
115
115
115
114
114
114
113
114
114
114
113
113
113
114
114
114
114
115
115
115
114
114
114
115
115
115
115
114
114
114
115
115
115
114
114
114
115
115
115
115
116
116
116
115
115
115
116
116
116
115
115
115
116
116
116
116
115
115
115
116
116
116
116
115
115
115
116
116
116
116
115
115
115
116
116
116
115
115
115
116
116
116
115
115
115
116
116
117
119
120
120
121
121
121
122
122
123
123
123
122
122
121
120
120
119
119
118
117
115
114
114
113
113
114
114
114
114
114
114
115
115
114
114
114
115
115
115
114
114
114
115
115
114
111
107
103
101
101
104
106
106
104
99
94
91
90
91
92
93
94
94
95
95
96
96
97
98
101
105
110
113
115
116
117
118
118
118
119
119
119
120
120
121
121
122
122
123
124
125
126
128
129
130
132
133
135
136
136
137
136
136
136
136
136
136
136
135
134
133
133
132
131
129
127
124
121
119
118
117
116
116
115
114
114
113
113
114
114
113
113
114
114
114
114
115
115
115
114
114
114
115
115
115
114
114
114
114
115
115
115
114
114
114
115
115
115
115
116
116
116
115
115
115
116
116
116
115
115
115
116
116
116
115
115
115
116
116
116
115
115
116
116
116
115
115
115
116
116
116
115
115
115
116
116
116
115
115
115
116
116
116
116
115
115
116
116
117
118
119
120
120
121
121
122
122
123
123
123
122
122
121
120
120
119
119
118
117
116
115
114
113
113
113
114
114
114
114
114
115
115
115
114
114
114
115
115
115
114
114
114
115
115
113
109
105
102
101
103
105
107
105
101
96
92
91
91
92
93
94
94
94
95
96
96
96
97
99
103
107
111
114
116
117
117
118
118
119
119
120
120
120
121
121
122
122
123
124
124
126
127
128
130
131
133
134
135
136
137
137
137
136
136
137
137
136
136
135
133
132
132
131
130
128
126
123
121
119
117
116
116
115
114
114
114
114
114
114
113
113
113
114
114
114
114
115
115
115
114
114
114
115
115
115
114
114
114
115
115
115
114
114
114
115
115
115
115
115
115
115
115
115
115
115
116
116
116
115
116
116
115
115
115
115
115
115
115
116
116
116
115
115
115
116
116
116
115
115
116
116
116
115
115
116
116
116
115
115
115
116
116
116
115
115
115
116
116
117
118
120
120
121
121
121
122
122
123
123
123
122
121
121
120
119
119
119
118
117
115
114
114
113
113
113
113
114
114
114
114
115
115
114
114
114
115
115
115
114
114
114
115
115
114
111
107
103
101
101
104
106
106
104
99
94
91
91
92
93
94
94
94
95
95
96
96
97
98
101
105
110
113
115
116
117
118
118
119
119
120
120
120
120
120
121
121
122
123
124
125
126
128
129
131
132
134
135
136
137
137
136
136
136
136
137
137
136
136
134
133
133
132
131
129
127
124
121
119
118
117
116
116
115
114
114
113
113
114
114
114
113
113
114
114
114
114
115
115
115
114
114
114
115
115
115
114
115
115
114
114
114
115
115
115
114
114
114
115
115
115
115
116
116
116
115
115
115
116
116
116
115
115
115
116
116
116
116
115
115
115
116
116
116
116
115
115
115
116
116
116
115
115
115
116
116
116
115
115
115
115
116
116
116
115
115
116
116
117
118
119
120
120
121
121
122
122
123
123
123
122
122
121
120
120
119
119
118
117
116
115
114
113
113
114
114
114
114
114
114
114
115
115
114
114
115
115
115
114
114
114
115
115
115
113
109
104
101
101
103
105
107
105
101
96
92
90
91
92
93
94
94
95
95
96
96
96
98
100
104
108
112
115
116
117
117
118
118
119
119
120
120
120
120
121
121
122
123
124
125
126
127
129
130
132
133
134
135
136
137
137
136
136
136
136
136
136
136
135
133
132
132
131
129
127
125
122
120
118
117
116
115
115
114
114
114
114
113
113
113
113
114
114
114
114
114
114
114
114
114
115
115
115
114
114
114
114
115
115
115
115
114
114
114
115
115
115
115
115
115
114
114
115
115
115
116
116
115
115
115
116
116
116
115
115
115
115
116
116
116
115
115
115
116
116
115
115
115
116
116
116
115
115
115
116
116
116
115
115
115
116
116
116
115
115
115
116
116
117
119
120
120
121
121
121
122
122
123
123
122
122
121
120
120
120
119
119
118
116
115
114
113
113
113
114
114
114
114
114
115
115
115
114
114
114
115
115
115
114
114
114
115
115
114
111
106
103
101
102
105
107
106
103
98
94
91
91
92
93
94
94
94
95
95
96
96
97
99
102
106
110
114
116
117
117
118
118
119
119
120
120
120
120
121
121
122
122
123
124
125
126
128
129
131
132
134
135
136
137
137
136
136
136
136
136
136
136
135
134
133
132
131
130
128
126
124
121
119
118
116
115
115
114
114
114
114
113
113
114
114
114
113
113
114
114
114
114
115
114
114
114
114
114
115
115
115
114
114
114
115
115
115
115
114
114
114
115
115
115
115
115
115
115
115
116
116
116
116
115
115
115
116
116
116
115
115
115
116
116
116
115
115
116
116
115
115
115
116
116
116
115
115
115
116
116
116
115
115
115
116
116
116
115
115
115
116
116
117
118
119
120
120
121
121
122
122
123
123
123
122
122
121
120
120
119
119
118
117
116
115
114
113
113
113
114
114
114
114
114
115
115
114
114
114
115
115
115
114
114
114
115
115
115
113
109
104
101
101
103
106
107
105
100
95
92
90
91
92
93
94
94
95
95
96
96
96
98
100
104
108
112
115
116
117
117
118
118
119
119
120
120
120
121
121
121
122
123
124
125
126
127
129
130
132
133
134
135
136
137
137
136
136
136
137
137
136
136
135
133
132
132
131
129
127
125
123
120
118
117
116
115
115
114
114
114
114
114
113
113
113
113
114
114
114
114
115
115
115
114
114
114
114
115
115
115
114
114
114
114
115
115
115
114
114
114
115
115
115
115
115
115
115
115
115
116
116
116
115
115
115
115
116
116
116
115
115
115
116
116
116
115
115
115
116
116
115
115
116
116
116
115
115
115
116
116
116
115
115
115
116
116
116
115
115
115
116
116
117
119
120
120
121
121
121
122
122
123
123
123
122
121
120
120
120
119
119
118
116
115
114
113
113
114
114
114
113
113
114
114
115
115
114
114
114
115
115
115
114
114
114
115
115
114
111
106
102
101
102
104
106
106
103
98
94
91
91
92
93
94
94
94
95
96
96
96
97
99
102
106
110
114
116
117
117
117
118
119
120
120
120
120
121
121
121
122
122
123
124
125
127
128
129
131
132
134
135
136
137
137
137
136
136
136
136
136
136
135
134
133
132
131
130
128
126
124
121
119
118
116
115
115
114
114
114
114
113
113
113
114
114
114
114
114
114
114
114
114
115
115
115
115
114
114
114
115
115
115
114
114
114
114
115
115
115
114
114
114
115
115
115
115
116
116
116
115
115
115
116
116
116
115
115
115
116
116
116
115
115
115
115
116
116
116
115
115
115
116
116
116
115
115
115
116
116
116
116
115
115
115
116
116
116
115
115
115
116
117
118
119
120
121
121
121
122
122
123
123
123
122
122
121
120
120
119
119
118
117
116
115
114
113
113
113
114
114
114
114
115
115
115
115
114
114
114
114
114
114
114
114
115
115
115
112
108
104
101
101
103
106
107
105
101
96
92
91
91
92
94
94
94
95
95
96
96
96
98
100
104
108
112
115
116
117
117
118
118
119
119
120
120
120
121
121
121
122
123
124
125
126
127
129
130
132
133
135
136
136
137
136
136
136
136
136
137
136
136
135
133
132
132
131
129
127
125
123
120
118
117
116
115
115
114
114
114
114
114
113
113
113
113
114
114
114
114
115
115
115
114
114
114
115
115
115
115
114
114
114
114
115
115
115
114
114
114
115
115
115
115
116
116
116
115
115
115
116
116
116
115
115
115
116
116
116
115
115
115
116
116
116
116
116
116
116
115
115
115
116
116
116
115
115
115
116
116
116
115
115
115
116
116
116
115
115
115
116
116
117
118
119
120
121
121
122
122
122
123
123
123
122
121
121
120
120
119
118
117
116
115
114
114
113
113
113
114
114
114
114
113
113
113
113
114
115
115
115
114
114
114
115
115
115
113
111
108
104
102
101
102
105
110
116
123
131
139
148
158
168
177
184
191
200
208
214
213
198
172
139
108
87
79
82
87
91
92
91
90
92
94
96
97
97
97
98
100
101
103
104
105
107
109
112
114
115
117
118
119
121
121
122
122
122
123
123
123
123
123
122
121
121
120
119
118
116
114
111
110
108
108
107
107
106
106
106
106
106
106
107
107
107
107
107
108
108
108
108
108
109
109
109
109
110
109
109
110
110
110
110
111
111
111
111
111
112
112
112
111
111
111
112
112
112
112
113
113
113
112
112
112
113
113
113
113
114
114
114
113
113
113
114
114
114
113
113
113
114
114
114
114
115
115
115
114
114
115
115
114
114
114
115
115
114
114
114
115
115
116
118
119
119
120
120
120
121
122
122
123
122
122
121
120
119
119
119
118
118
116
115
114
113
113
113
114
114
113
113
114
114
114
113
113
113
114
114
115
114
114
114
115
115
115
114
111
108
105
102
101
101
103
108
113
120
128
135
144
154
164
174
182
189
197
205
212
214
204
182
150
118
92
80
80
85
91
92
92
90
91
93
95
97
97
97
98
99
101
103
104
105
106
108
110
113
115
116
118
119
120
121
121
121
122
122
123
123
123
123
122
121
121
120
120
118
116
114
112
110
109
108
107
107
106
106
106
106
106
106
106
107
108
109
111
112
112
113
114
114
115
116
117
117
116
115
114
114
113
113
113
113
112
111
110
109
109
109
110
110
109
109
110
110
111
111
110
110
111
111
111
111
111
111
112
112
112
111
109
106
102
99
98
99
101
106
112
118
126
134
142
152
163
172
180
187
195
203
211
212
203
180
149
116
91
79
78
84
89
92
91
89
90
92
94
96
96
96
97
98
100
102
103
105
106
108
110
112
114
115
117
119
120
121
121
121
122
122
123
123
123
122
121
121
120
120
119
118
116
114
111
110
108
108
107
107
107
106
106
105
106
106
106
106
107
107
107
107
107
108
108
108
108
108
109
109
109
109
110
110
110
110
110
111
111
110
110
110
111
111
111
112
112
111
111
111
112
112
112
112
113
113
113
113
112
112
112
113
113
113
113
114
114
114
113
113
114
114
114
113
113
113
114
114
114
114
115
115
115
115
114
114
114
114
115
115
115
114
114
114
115
116
117
118
119
119
120
120
121
121
122
122
122
122
121
120
120
119
119
118
118
117
115
114
114
113
113
114
114
113
113
114
114
114
113
113
113
114
114
114
114
114
114
115
115
115
114
112
109
105
102
101
101
103
107
112
119
126
134
142
152
162
172
181
188
195
203
211
214
208
188
158
124
97
81
79
83
89
92
92
90
90
92
95
97
97
97
97
99
101
102
104
105
106
108
110
112
114
116
117
119
120
121
121
121
122
122
123
123
123
123
122
121
121
120
120
119
117
115
112
110
109
108
107
107
107
106
106
106
106
106
106
107
107
107
107
108
108
108
108
108
108
109
109
109
109
109
110
110
110
110
111
111
110
110
110
111
111
112
112
112
111
111
112
112
112
112
113
113
112
112
112
113
113
113
113
113
113
114
114
114
113
113
114
114
114
113
113
113
114
114
114
114
115
115
115
114
114
115
115
115
114
114
115
115
115
114
114
114
115
115
116
117
118
119
120
121
121
121
122
122
123
122
122
121
120
119
119
118
118
117
116
115
114
113
113
113
114
114
114
113
114
114
113
113
113
114
114
115
115
114
114
114
115
115
114
113
110
106
103
101
100
102
105
110
117
124
131
140
149
159
169
178
185
192
200
209
214
211
195
167
134
104
85
79
82
88
92
92
91
90
92
94
96
97
97
97
98
100
102
103
104
105
107
109
112
114
115
117
118
120
121
121
122
122
122
122
123
123
123
123
122
121
121
120
119
118
116
114
111
109
108
107
107
107
106
106
106
106
106
106
106
107
107
107
107
108
108
108
108
108
109
109
109
109
110
109
109
110
110
110
110
111
111
111
111
111
111
112
112
112
111
111
111
112
112
112
112
113
113
112
112
113
113
113
113
114
114
114
113
113
113
114
114
113
113
113
114
114
114
114
114
114
115
115
115
115
115
115
114
114
114
115
115
115
114
114
114
115
115
116
118
119
119
120
120
120
121
122
122
122
122
122
121
120
119
119
118
118
117
116
115
114
114
113
113
114
114
113
113
114
114
114
113
113
113
114
114
114
114
114
114
115
115
115
114
111
108
104
102
101
101
104
109
114
121
129
137
146
156
166
175
183
190
198
206
213
213
201
177
144
112
89
79
80
86
91
92
91
90
91
93
95
97
97
97
98
99
101
103
104
105
107
109
111
113
115
116
118
120
121
121
121
122
122
122
123
123
123
123
122
121
121
120
119
118
116
114
111
110
108
108
107
107
107
106
106
106
106
106
106
107
107
107
107
108
108
108
108
108
109
109
109
109
110
110
110
110
110
110
110
110
110
110
111
111
111
111
112
112
112
112
112
112
112
112
112
112
112
112
112
113
113
113
113
114
114
114
113
113
113
114
114
113
113
113
114
114
114
114
115
115
115
114
114
114
115
115
115
114
114
115
115
115
114
114
114
115
115
116
117
118
119
119
120
120
121
122
122
123
123
122
121
120
119
119
119
118
118
116
115
114
113
113
113
114
114
114
113
113
114
114
114
113
113
113
114
114
114
114
114
115
115
115
114
112
108
105
102
101
101
103
107
113
120
127
135
143
153
163
173
181
189
196
204
211
214
207
187
156
122
95
81
79
84
90
92
92
90
91
93
95
97
97
97
97
99
101
102
104
105
106
108
110
113
114
116
118
119
120
121
121
121
122
122
123
123
123
123
122
121
121
120
120
119
117
115
112
110
109
108
107
107
107
106
106
106
106
106
106
107
108
109
110
112
112
113
113
114
115
116
116
117
116
116
115
114
114
113
113
113
112
111
110
109
109
109
109
109
109
110
110
110
110
111
110
110
110
111
111
111
111
111
112
112
112
111
109
106
103
100
98
99
101
104
110
116
124
132
140
150
161
171
179
186
193
201
210
213
207
187
156
123
95
80
77
82
88
91
91
89
89
91
94
96
96
96
97
98
100
102
103
104
105
107
109
111
113
115
117
118
119
120
121
121
121
122
122
123
123
122
122
121
120
120
119
118
116
114
112
110
108
107
106
106
106
106
106
106
106
106
106
106
107
107
107
107
107
108
108
108
108
109
109
109
109
110
109
109
110
110
110
110
111
111
110
111
111
111
111
112
112
111
111
112
112
112
112
112
112
113
113
113
112
112
113
113
113
113
114
114
114
113
113
113
114
114
114
113
113
113
114
114
114
114
114
114
114
114
115
115
115
114
114
115
115
115
114
114
115
115
116
118
119
119
120
120
121
122
122
122
122
122
121
120
120
119
119
118
117
117
115
114
114
113
113
114
114
114
113
113
114
114
114
113
113
113
114
114
114
114
114
115
115
115
114
112
109
106
103
101
101
102
105
111
117
124
132
140
150
160
170
179
186
193
201
209
214
210
194
165
131
101
83
78
82
88
92
92
91
90
92
95
96
97
97
97
98
100
102
103
104
105
107
109
112
114
116
117
119
120
121
121
122
122
122
123
123
123
123
122
121
121
120
120
119
117
115
113
111
109
108
107
107
107
106
106
106
106
106
106
106
107
107
107
107
108
108
108
108
108
109
109
109
109
109
109
110
110
110
110
111
111
110
111
111
111
111
112
112
111
111
112
112
112
112
113
113
113
112
112
112
112
112
113
113
113
113
114
114
114
113
113
113
114
114
113
113
113
114
114
114
114
115
115
115
114
114
115
115
114
114
114
115
115
114
114
114
115
115
116
118
119
119
120
120
120
121
122
122
123
122
122
121
120
119
119
118
118
117
116
115
114
113
113
113
114
114
113
113
113
114
114
114
113
113
113
114
114
114
114
114
115
115
115
113
111
108
104
102
101
101
104
109
115
122
129
137
146
157
167
176
184
191
199
207
214
212
199
174
140
109
87
79
80
86
91
92
91
90
91
93
96
97
97
97
98
99
101
103
104
105
107
109
111
113
115
116
118
120
121
121
122
122
122
122
123
123
123
123
122
121
121
120
119
118
116
114
111
110
108
107
107
107
106
106
106
106
106
106
107
107
107
107
107
108
108
108
108
108
108
109
109
109
109
109
110
110
110
110
111
111
110
110
111
111
111
111
112
112
111
111
112
112
112
112
113
113
113
112
112
112
113
113
113
113
114
114
114
113
113
113
114
114
114
113
113
113
114
114
114
114
115
115
114
114
114
115
115
115
114
114
115
115
115
114
114
114
115
116
117
118
119
119
120
120
121
121
122
123
123
122
121
120
119
119
119
118
118
116
115
114
113
113
113
114
114
113
113
113
114
114
113
113
113
114
114
114
114
114
114
115
115
115
114
111
108
105
102
101
101
103
108
113
120
128
136
145
154
164
174
182
189
197
205
213
214
204
182
150
117
92
80
79
85
91
92
92
90
91
93
95
97
97
97
98
99
101
103
104
105
106
108
110
113
115
117
118
119
120
121
121
121
122
122
123
123
123
123
122
121
121
120
120
118
117
114
112
110
109
108
107
107
106
106
106
106
106
106
106
107
107
107
107
108
108
108
108
108
109
109
109
109
109
109
110
110
110
110
111
111
110
110
110
111
111
111
112
112
111
111
112
112
112
112
113
113
113
112
112
112
113
113
113
113
114
114
114
113
113
113
114
114
114
113
113
113
114
114
114
114
115
115
115
114
114
115
115
115
114
114
114
115
115
114
114
114
115
115
116
118
119
119
120
120
121
121
122
123
123
122
121
120
120
119
119
118
118
116
115
114
113
113
113
114
114
113
113
113
114
114
114
113
113
113
114
114
114
114
114
115
115
115
114
112
109
106
103
101
101
102
106
111
118
125
133
142
151
161
171
180
187
194
202
210
214
209
191
161
127
99
82
78
83
89
92
92
91
90
92
95
97
98
97
97
98
100
102
103
105
106
108
110
112
114
116
117
119
120
121
121
121
122
122
123
123
123
123
122
121
121
120
120
119
117
115
113
111
109
108
107
107
106
106
106
106
106
106
106
107
108
109
110
112
112
113
113
114
115
115
116
116
116
116
115
114
114
113
113
113
112
111
110
109
109
109
109
109
110
110
110
110
110
110
111
111
111
110
111
111
111
111
111
112
112
111
109
107
103
101
99
98
100
103
109
116
123
131
139
149
159
169
178
185
192
200
209
213
208
190
161
127
98
81
77
82
88
91
91
89
89
91
94
96
96
96
96
97
99
101
102
104
105
107
109
112
113
115
117
118
119
120
121
121
121
122
122
123
123
123
122
121
120
120
119
118
116
114
112
110
108
107
107
107
106
106
106
106
106
106
106
106
107
107
107
107
107
108
108
108
108
108
108
109
109
109
109
109
109
110
110
110
110
110
111
111
111
111
111
112
112
112
111
111
111
112
112
112
112
113
113
112
112
113
113
113
113
114
114
113
113
113
114
114
113
113
113
114
114
114
114
114
114
114
114
115
115
115
115
114
114
114
115
115
115
114
114
114
115
115
116
118
119
119
120
120
121
121
122
122
123
122
122
121
120
119
119
118
118
117
116
115
114
113
113
113
114
114
113
113
114
114
114
113
113
114
114
114
115
114
114
114
115
115
115
113
110
107
104
101
100
101
105
110
116
123
131
139
148
159
169
178
185
192
200
209
214
211
196
168
134
104
85
79
82
88
92
92
91
90
92
94
96
97
97
97
98
100
101
103
104
105
107
109
112
114
115
117
118
120
121
121
122
122
122
122
123
123
123
123
122
121
121
120
119
118
116
114
111
109
108
107
107
107
106
106
106
106
106
106
107
107
107
107
107
108
108
108
108
108
109
109
109
109
109
110
110
110
110
111
111
111
110
110
111
111
111
111
112
111
111
112
112
112
112
113
113
113
112
112
112
112
112
113
113
113
113
114
114
114
113
113
114
114
114
113
113
114
114
114
114
115
115
114
114
114
115
115
115
114
114
115
115
115
114
114
114
115
115
116
117
118
119
119
120
120
121
122
122
123
122
122
121
120
119
119
119
118
118
116
115
114
113
113
113
114
114
114
113
113
114
114
114
113
113
113
114
114
114
114
114
115
115
115
114
111
108
104
102
101
101
104
108
114
121
128
137
146
156
166
175
183
190
198
206
213
213
202
178
146
113
90
79
80
86
91
92
91
90
91
93
95
97
97
97
98
99
101
103
104
105
106
108
110
113
115
117
118
119
120
121
121
122
122
122
123
123
123
123
122
121
121
120
119
118
116
114
112
110
108
108
107
107
107
106
106
106
106
106
106
107
107
107
107
108
108
108
108
108
109
109
109
109
109
110
110
110
110
110
111
111
110
110
110
111
111
112
112
111
111
112
112
112
112
113
113
112
112
113
113
113
112
112
113
113
113
113
114
114
114
113
113
114
114
113
113
114
114
114
114
115
115
115
114
114
115
115
115
114
114
114
115
115
115
114
114
115
115
116
117
118
119
119
120
120
121
122
122
123
122
122
121
120
120
119
119
118
118
116
115
114
113
113
113
114
114
114
113
113
114
114
114
113
113
113
114
114
114
114
114
115
115
115
114
112
109
105
103
101
101
103
107
112
119
126
134
143
152
163
173
181
188
195
203
211
214
207
187
156
123
96
81
79
84
89
92
92
90
90
92
95
97
97
97
98
99
101
102
103
105
106
108
110
113
114
116
118
119
120
121
121
121
122
122
123
123
123
123
122
121
121
120
120
119
117
115
112
110
109
108
107
107
107
106
106
106
106
106
106
107
107
107
107
107
108
108
108
108
108
109
109
109
109
109
109
110
110
110
110
111
111
110
111
111
111
111
112
112
111
111
111
112
112
112
112
113
113
113
113
112
112
112
113
113
113
113
114
114
114
113
113
113
114
114
113
113
113
114
114
114
114
115
115
115
114
114
115
115
114
114
114
115
115
114
114
114
115
115
116
118
119
119
120
120
121
121
122
123
123
122
122
121
120
119
119
118
118
117
116
115
114
113
113
113
114
114
114
113
113
114
114
113
113
113
114
114
114
114
114
114
115
115
114
112
110
106
103
101
101
102
105
110
117
124
131
140
149
160
170
179
186
193
201
209
214
210
194
166
132
102
84
79
82
88
92
92
91
90
92
95
97
97
97
97
98
100
102
103
104
105
107
109
112
114
116
117
119
120
121
121
122
122
122
123
123
123
123
122
121
121
120
120
119
117
115
113
111
109
108
107
107
107
106
106
106
106
106
106
106
107
107
107
107
108
108
108
108
108
109
109
109
109
109
109
110
110
110
110
110
111
111
111
111
111
112
112
112
111
111
112
112
112
112
113
113
113
113
113
112
112
112
113
113
113
113
114
114
114
113
113
113
114
114
113
113
113
114
114
114
114
115
115
115
114
114
115
115
115
114
114
115
115
114
114
114
115
115
116
118
119
119
120
120
120
121
122
122
123
122
122
121
120
119
119
118
118
117
116
115
114
113
113
113
114
114
114
113
113
114
114
113
113
113
114
114
114
113
114
114
115
115
115
113
111
108
104
102
101
101
104
109
115
122
130
138
146
156
166
176
183
191
199
207
214
213
200
174
141
110
88
79
81
87
91
92
91
90
91
94
96
97
97
97
98
99
101
103
104
105
107
109
111
113
115
116
118
120
121
121
122
122
122
122
123
123
123
123
122
121
121
120
119
118
116
114
111
110
108
108
107
107
106
106
106
106
106
106
106
107
107
107
107
108
108
108
108
108
109
109
109
109
109
109
110
110
110
110
111
111
110
111
111
111
111
112
112
111
111
111
112
112
112
112
113
113
113
112
112
112
113
113
113
113
114
114
114
113
113
114
114
114
113
113
113
114
114
114
114
114
114
114
114
115
115
115
114
114
114
115
115
115
114
114
114
115
115
116
117
118
119
119
120
120
121
122
122
123
122
122
121
120
120
119
119
118
118
116
115
114
113
113
113
114
114
113
113
113
114
114
113
113
113
114
114
114
114
113
113
114
114
115
114
111
108
105
102
101
101
103
107
113
119
127
134
143
153
164
174
182
189
197
205
212
214
205
183
151
118
92
80
79
84
90
92
91
90
90
93
95
97
97
97
98
99
101
103
104
105
106
108
110
112
114
116
118
119
120
121
122
122
122
123
123
123
123
123
122
121
120
120
119
118
117
114
112
110
109
108
107
107
106
106
106
106
106
106
106
107
107
107
107
108
108
108
108
108
109
109
109
109
109
110
110
110
110
110
111
111
110
110
111
111
111
111
111
111
111
111
112
112
112
112
113
113
113
112
112
112
113
113
113
113
114
114
114
113
113
113
113
114
114
114
113
113
113
114
114
114
114
115
115
115
114
114
114
114
114
114
115
115
115
114
114
114
115
116
117
118
119
119
120
120
121
122
122
123
123
122
122
121
120
119
119
118
118
117
115
114
114
113
113
114
114
114
113
113
114
114
114
113
113
113
114
114
114
114
114
115
115
115
114
112
109
106
103
101
101
102
106
112
118
126
133
142
151
162
172
180
188
194
202
210
214
209
190
161
127
98
82
78
83
89
92
92
90
90
92
95
97
97
97
97
98
100
101
103
104
106
108
110
112
114
116
117
119
120
121
122
122
122
122
123
123
123
123
122
121
121
120
120
119
117
115
113
111
109
108
107
107
107
106
106
106
106
106
106
107
107
107
107
107
108
108
108
108
108
109
109
109
109
109
109
110
110
110
110
110
111
111
111
111
111
112
112
112
111
111
111
112
112
112
112
112
112
113
113
112
112
113
113
113
113
114
114
114
113
113
113
113
114
114
114
114
114
114
114
114
114
114
115
115
115
114
114
114
114
114
114
115
115
115
114
114
115
115
116
118
119
119
120
120
121
121
122
122
122
122
121
121
120
119
119
118
118
117
116
115
114
113
113
113
114
114
114
114
114
114
113
113
113
114
114
115
115
114
114
114
115
115
115
113
110
107
104
101
100
102
105
110
116
122
130
138
147
158
168
177
184
191
199
208
214
212
198
171
138
107
86
79
82
88
92
92
90
90
91
93
96
97
97
97
98
100
101
103
104
105
107
109
112
113
115
117
118
119
121
121
122
122
122
122
123
123
123
123
122
121
121
120
119
118
116
114
111
110
108
108
107
107
106
106
106
106
106
106
107
107
107
107
107
108
108
108
108
108
108
109
109
109
109
109
109
110
110
110
110
111
111
111
111
111
111
112
112
112
111
111
112
112
112
112
113
113
113
112
112
112
113
113
113
113
113
113
113
114
114
113
113
114
114
114
113
113
113
114
114
114
114
115
115
115
114
114
114
114
114
115
115
115
114
114
114
115
115
116
118
119
119
120
120
120
121
122
122
122
122
121
121
120
119
119
119
118
117
116
115
114
114
113
113
114
114
113
113
113
114
114
114
113
113
113
114
114
114
114
114
115
115
115
114
111
108
105
102
101
101
103
108
114
121
128
136
145
154
164
174
182
189
197
205
212
213
203
181
149
116
92
80
80
85
91
92
91
90
91
93
95
97
97
97
98
99
101
103
104
105
106
108
110
113
115
116
118
119
120
121
121
121
122
122
123
123
123
123
122
121
121
120
119
118
116
114
112
110
109
108
107
107
106
106
106
106
106
106
107
107
107
107
107
108
108
108
108
108
108
109
109
109
109
109
110
110
110
110
110
110
111
111
111
111
111
112
112
112
111
111
111
112
112
112
112
113
113
113
112
112
113
113
113
113
114
114
114
113
113
114
114
114
113
113
113
113
114
114
114
114
115
115
115
115
114
114
114
115
115
115
114
114
114
115
115
114
110
102
92
82
73
65
58
51
45
39
34
32
31
33
39
50
62
75
84
90
93
96
101
111
122
133
140
143
142
140
140
141
143
144
145
145
144
144
145
145
145
146
147
148
150
150
151
151
152
154
157
159
161
161
161
162
164
166
169
170
170
170
171
172
173
174
175
175
175
174
173
173
173
173
172
172
171
170
169
168
167
166
164
163
161
159
157
155
153
151
149
147
145
143
141
138
135
132
129
127
126
123
120
116
112
110
108
107
105
103
100
97
95
94
93
92
90
85
80
76
75
75
77
79
80
80
80
81
82
83
84
85
86
86
87
88
89
90
90
91
92
92
93
93
94
94
95
96
96
97
97
98
98
98
99
99
100
100
101
101
102
102
102
103
103
103
104
104
104
104
105
105
106
106
106
106
107
107
107
107
107
108
108
108
108
108
108
109
109
109
109
109
110
110
110
110
110
111
111
111
111
111
112
112
112
111
111
111
112
113
114
115
117
117
118
118
118
119
119
120
120
120
119
119
118
118
117
117
116
115
114
113
112
111
111
111
112
112
112
112
113
113
113
112
112
112
113
113
113
113
113
114
114
114
113
111
108
105
102
101
100
102
105
111
117
124
132
140
150
160
170
179
186
193
201
210
214
209
191
162
128
99
82
78
82
89
92
92
90
90
92
94
96
97
97
97
98
100
102
103
104
106
107
109
112
114
116
117
119
120
121
121
122
122
122
123
123
123
123
122
121
121
120
120
119
117
115
112
110
109
108
107
107
106
106
106
106
106
106
106
107
107
107
107
107
108
108
108
108
108
109
109
109
109
109
109
110
110
110
110
111
111
110
110
110
111
111
111
112
112
111
111
112
112
112
112
113
113
112
112
112
113
113
113
113
114
114
114
113
113
114
114
114
113
113
113
114
114
114
114
115
115
115
114
114
114
115
115
115
114
114
115
115
115
114
114
114
115
115
116
118
119
119
120
120
121
121
122
122
123
122
122
121
120
119
119
118
118
117
116
115
114
113
113
113
114
114
113
113
114
114
114
113
113
113
114
114
114
114
114
114
115
115
115
113
110
107
104
101
100
102
105
110
116
123
130
139
148
158
168
177
185
192
200
208
214
212
197
170
136
106
85
78
81
87
91
92
91
90
91
94
96
97
97
97
98
100
101
103
104
105
107
109
112
114
115
117
118
120
121
121
122
122
122
122
123
123
123
123
122
121
121
120
119
118
116
114
111
110
108
107
107
107
106
106
106
106
106
106
107
107
107
107
107
108
108
108
108
108
109
109
109
109
109
109
110
110
110
110
111
111
110
110
111
111
111
111
112
112
111
112
112
112
112
113
113
113
112
112
112
113
113
113
113
114
114
114
113
113
113
114
114
113
113
113
114
114
114
114
115
115
115
114
114
114
115
115
115
114
114
115
115
115
114
114
114
115
115
116
117
118
119
119
120
120
121
122
122
122
122
121
121
120
120
119
119
118
118
116
115
114
114
113
113
114
114
113
113
114
114
114
113
113
113
114
114
114
114
114
114
115
115
115
114
111
108
104
102
101
101
104
108
114
121
128
137
146
156
166
175
183
190
198
206
213
213
202
178
145
113
90
79
80
86
91
92
91
90
91
93
95
97
97
97
98
99
101
103
104
105
106
108
110
113
115
117
118
120
121
121
121
122
122
122
123
123
123
123
122
121
121
120
119
118
116
114
112
110
109
108
107
107
106
106
106
106
106
106
106
107
107
107
107
108
108
108
108
108
109
109
109
109
109
109
110
110
110
110
111
111
110
110
111
111
111
111
112
111
111
112
112
112
112
113
113
113
112
112
112
112
113
113
113
113
114
114
114
113
113
114
114
114
113
113
114
114
114
114
115
115
115
114
114
114
115
115
115
114
114
114
115
115
115
114
114
115
115
116
117
118
119
119
120
120
121
121
122
123
123
122
121
120
120
119
119
118
118
116
115
114
113
113
113
114
114
114
113
114
114
113
113
113
114
114
114
114
114
114
114
114
115
115
114
112
109
105
102
101
101
103
107
112
119
126
134
142
152
162
172
180
188
195
203
211
214
207
188
157
124
96
81
79
83
89
92
91
90
90
93
95
97
97
97
98
99
101
102
103
105
106
108
110
113
114
116
118
119
120
121
121
121
122
122
123
123
123
123
122
121
121
120
120
119
117
115
112
110
109
108
107
107
107
106
106
106
106
106
106
107
107
107
107
108
108
108
108
108
108
109
109
109
109
109
110
110
110
110
111
111
110
110
110
111
111
112
112
111
111
112
112
112
112
113
113
112
112
112
113
113
112
112
113
113
113
113
114
114
114
113
113
114
114
113
113
114
114
114
114
115
115
115
114
114
115
115
115
114
114
114
115
115
115
114
114
114
115
116
117
118
119
119
120
120
121
121
122
122
122
122
121
121
120
119
119
118
118
117
116
115
114
113
113
113
113
114
114
114
114
113
113
113
113
114
114
114
113
113
114
114
115
115
114
113
110
106
103
101
100
102
105
110
117
124
131
140
149
159
169
178
185
192
200
209
215
211
195
166
133
103
84
79
82
88
92
92
90
90
91
94
96
97
97
97
98
100
102
103
104
106
107
109
112
114
116
117
119
120
121
121
122
122
122
123
123
123
123
122
122
121
120
120
119
118
115
113
111
109
108
107
107
107
106
106
106
106
106
106
107
107
107
107
108
108
108
108
108
109
109
109
109
109
110
110
110
110
110
111
111
111
110
111
111
111
111
112
112
111
111
111
112
112
112
112
113
113
113
113
113
112
112
112
113
113
113
113
114
114
114
113
113
114
113
113
113
114
114
114
114
115
115
115
114
114
114
115
115
114
114
114
115
115
115
114
114
115
115
116
118
119
119
120
120
120
121
122
122
122
122
122
121
120
120
119
119
118
117
116
115
114
114
113
113
113
114
114
114
114
113
113
113
114
114
114
114
114
114
114
114
115
115
115
113
111
107
104
102
101
101
104
109
115
122
129
137
146
156
166
176
183
191
198
207
213
213
201
176
143
111
89
79
80
86
91
92
91
90
91
93
95
97
97
97
98
99
101
103
104
105
107
109
111
113
115
116
118
120
121
121
122
122
122
122
123
123
123
123
122
121
121
120
119
118
116
114
111
110
108
108
107
107
107
106
106
106
106
106
106
107
107
107
107
108
108
108
108
108
108
108
109
109
109
109
110
110
110
110
111
110
110
111
111
111
111
112
112
111
111
112
112
112
112
113
113
112
112
113
113
113
112
112
113
113
113
113
114
114
114
113
113
113
113
113
114
114
114
114
114
114
114
115
115
115
114
114
114
115
115
115
114
114
114
115
115
113
108
100
90
80
71
63
56
50
43
38
33
31
31
34
41
51
64
76
85
90
93
96
102
112
124
134
141
143
142
140
140
142
143
145
145
145
144
144
144
145
145
146
147
149
150
151
151
152
153
155
158
160
161
161
162
163
165
167
169
170
171
171
171
172
173
175
175
175
174
174
173
173
173
173
172
171
171
170
169
168
167
166
164
162
160
158
156
154
152
150
148
147
145
143
140
137
134
131
129
127
125
123
119
116
112
110
108
107
105
103
99
96
94
93
93
92
89
84
79
76
75
75
77
79
80
81
81
81
82
84
85
85
86
87
88
88
89
90
90
91
91
92
93
94
94
95
95
96
96
97
97
98
98
99
99
100
100
101
101
101
101
102
102
103
103
104
104
104
104
105
105
105
105
106
106
106
107
107
107
107
108
108
108
108
108
108
109
109
109
109
109
110
110
110
110
110
111
111
110
111
111
111
111
112
112
111
111
111
112
113
114
115
116
117
118
118
118
119
120
120
120
120
119
119
118
117
117
116
116
115
114
113
112
111
111
111
112
112
112
112
113
113
113
112
112
112
113
113
113
113
113
114
114
114
113
111
108
105
102
100
100
102
106
112
119
126
133
142
151
162
172
180
188
195
203
211
214
207
187
156
123
95
81
78
83
89
92
91
90
90
92
95
97
97
97
97
99
100
102
104
105
106
108
110
112
114
116
117
119
120
121
121
121
122
122
123
123
123
123
122
121
121
120
120
118
117
114
112
110
109
108
107
107
107
106
106
106
106
106
106
107
107
107
107
107
108
108
108
108
108
109
109
109
109
109
109
110
110
110
110
111
111
110
111
111
111
111
112
112
112
112
112
112
112
112
112
113
113
113
112
112
112
113
113
113
113
114
114
114
113
113
113
113
114
114
114
114
114
114
114
114
114
115
115
115
115
114
114
114
114
114
115
115
115
114
114
114
115
115
116
118
119
119
120
120
121
121
122
122
122
122
121
121
120
119
119
118
118
117
116
115
114
113
113
113
114
114
113
113
114
114
114
113
113
113
114
114
114
114
114
115
115
115
114
112
110
106
103
101
101
102
105
111
117
124
132
140
150
160
170
179
186
193
201
209
214
211
194
166
132
102
83
78
82
88
92
92
90
90
92
95
97
97
97
97
98
100
102
103
104
105
107
109
112
114
116
117
119
120
121
121
122
122
122
123
123
123
123
122
122
121
120
120
119
117
115
113
111
109
108
107
107
107
106
106
106
106
106
106
107
107
107
107
107
108
108
108
108
108
109
109
109
109
109
109
110
110
110
110
111
111
110
111
111
111
111
112
112
111
111
112
112
112
112
113
113
113
112
112
112
112
113
113
113
113
114
114
114
113
113
114
114
114
113
113
114
114
114
114
115
115
115
114
114
114
115
115
115
114
114
115
115
115
114
114
114
115
115
116
118
119
119
120
120
121
121
122
122
123
122
122
121
120
119
119
118
118
117
116
115
114
113
113
113
114
114
113
113
113
114
114
114
113
113
113
114
114
114
114
114
115
115
115
113
111
107
104
102
100
101
104
109
115
122
130
138
147
157
167
176
183
191
199
207
214
212
199
173
140
109
87
79
81
86
91
92
91
90
91
93
96
97
97
97
98
99
101
103
104
105
107
109
111
113
115
116
118
120
121
121
122
122
122
122
123
123
123
123
122
121
121
120
119
118
116
114
111
109
108
107
107
107
107
106
106
106
106
106
106
107
107
107
107
107
108
108
108
108
108
109
109
109
109
109
110
110
110
110
111
111
110
111
111
111
111
112
112
111
111
111
112
112
112
112
113
113
113
112
112
112
113
113
113
113
114
114
114
113
113
113
114
114
113
113
114
114
114
114
114
114
114
114
114
115
115
115
114
114
114
115
115
115
115
114
114
115
115
116
117
118
119
119
120
120
121
122
122
123
123
122
121
120
119
119
119
118
118
116
115
114
113
113
113
114
114
113
113
113
114
114
114
113
113
113
114
114
114
114
114
115
115
115
114
111
108
105
102
101
101
103
107
113
120
127
135
144
154
164
174
182
189
196
205
212
214
205
182
151
118
92
80
79
85
90
93
92
90
91
93
95
97
97
97
98
99
101
103
104
105
106
108
110
113
115
117
118
119
120
121
121
121
122
122
123
123
123
123
122
121
121
120
120
119
117
114
112
110
109
108
107
107
106
106
106
106
106
106
107
107
107
107
107
108
108
108
108
108
108
109
109
109
109
109
110
110
110
110
111
111
111
111
111
111
111
111
111
111
111
112
112
112
112
113
113
113
112
112
112
112
113
113
113
113
114
114
114
113
113
113
113
114
114
114
114
114
114
114
114
115
115
114
114
114
115
115
115
114
114
114
115
115
115
114
114
114
115
115
116
117
118
119
120
121
121
122
122
123
123
122
121
120
119
119
118
118
118
117
115
114
114
113
113
114
114
113
113
113
114
114
114
113
113
113
114
114
114
114
114
115
115
115
114
112
109
106
103
101
101
102
106
111
118
125
133
141
151
161
171
180
187
194
202
210
215
209
191
162
128
99
82
78
83
89
92
92
90
90
92
95
97
98
97
97
98
100
102
103
105
106
108
110
112
114
116
117
119
120
121
122
122
122
122
123
123
123
123
122
122
121
121
120
119
117
115
113
111
109
108
107
107
107
106
106
106
106
106
106
107
107
107
107
107
108
108
108
108
108
109
109
109
109
109
110
110
110
110
110
111
111
111
110
110
111
111
111
111
111
111
112
112
112
112
113
113
113
112
112
112
112
113
113
113
113
114
114
114
113
113
113
114
114
113
113
113
114
114
114
114
115
115
115
114
114
115
115
115
114
114
114
115
115
114
114
114
115
115
116
118
119
119
120
120
121
121
122
122
123
122
122
121
120
119
119
118
118
117
116
115
114
113
113
113
114
114
113
113
113
114
114
113
113
113
114
114
114
114
114
114
115
115
115
113
110
107
104
101
100
102
105
109
116
123
130
138
148
158
168
177
184
191
199
208
214
212
197
170
137
106
86
79
81
87
91
92
91
90
91
94
96
97
97
97
98
100
101
103
104
105
107
109
112
114
115
117
118
119
120
121
121
122
122
123
123
123
123
123
122
121
121
120
119
118
116
114
111
110
108
108
107
107
106
106
106
106
106
106
107
107
107
107
107
108
108
108
108
108
109
109
109
109
109
110
110
110
110
110
111
111
110
110
110
111
111
112
112
111
111
112
112
112
112
113
113
113
112
112
112
112
112
113
113
113
113
114
114
114
113
113
114
114
113
113
113
114
114
114
114
115
115
115
115
114
114
114
115
115
115
114
114
114
115
115
115
113
107
98
88
78
69
62
55
49
43
37
33
31
31
35
42
53
66
78
87
91
94
97
104
115
127
136
142
143
142
141
141
142
144
145
145
144
144
144
144
144
145
146
147
149
150
151
151
152
153
156
158
160
161
161
162
163
165
167
169
170
171
171
171
172
174
174
175
175
174
174
174
173
173
172
172
171
171
170
169
168
167
165
164
162
160
158
156
154
152
150
148
146
145
143
140
137
134
131
129
127
125
122
119
115
112
110
108
107
105
103
99
96
94
93
93
91
88
84
79
76
75
76
77
79
80
81
81
81
82
84
85
86
86
87
88
89
89
90
90
91
92
93
93
94
94
95
95
96
96
97
97
98
98
99
99
100
100
101
101
101
102
102
102
103
103
104
104
104
105
105
105
105
106
106
106
106
106
107
107
107
107
108
108
108
108
108
109
109
109
109
109
110
110
110
110
110
111
111
111
111
111
111
112
112
112
111
111
111
112
113
114
116
117
117
118
118
119
119
120
120
120
120
119
119
118
117
117
116
116
115
113
112
112
111
111
112
112
112
112
113
113
113
112
112
112
113
113
113
113
113
113
114
114
114
113
110
107
104
101
100
100
102
106
112
119
127
135
143
153
163
173
181
188
196
204
212
213
204
182
151
118
93
80
79
84
89
92
91
90
90
92
95
96
97
97
97
99
101
102
104
105
106
108
110
113
114
116
118
119
120
121
121
121
122
122
123
123
123
123
122
121
121
120
119
118
116
114
112
110
108
108
107
107
107
106
106
106
106
106
106
107
107
107
107
107
108
108
108
108
108
109
109
109
109
109
109
110
110
110
110
111
111
110
111
111
111
111
112
112
111
111
111
112
112
112
112
113
113
112
112
113
113
113
113
113
113
113
113
114
114
114
114
113
113
113
114
114
114
114
114
114
114
114
114
115
115
115
115
114
114
114
115
115
115
114
114
114
115
115
116
117
118
119
120
121
121
122
122
123
122
122
121
120
120
119
119
118
118
117
116
115
114
113
113
113
114
114
113
114
114
114
113
113
113
114
114
114
114
114
114
115
115
115
114
112
109
106
103
101
101
102
106
112
118
126
133
142
151
161
171
180
187
194
202
210
214
209
191
162
128
99
82
78
83
89
92
92
91
90
92
95
97
97
97
98
99
100
102
103
105
106
108
110
112
114
116
117
119
120
121
121
122
122
122
123
123
123
123
122
121
121
120
120
119
117
115
113
110
109
108
107
107
107
106
106
106
106
106
106
107
107
107
107
108
108
108
108
108
109
109
109
109
110
110
109
109
110
110
110
110
111
111
111
111
111
111
112
112
112
111
111
112
112
112
112
113
113
113
112
112
112
113
113
113
113
114
114
114
113
114
114
113
113
113
114
114
114
114
115
115
115
114
114
114
115
115
115
114
114
114
115
115
114
114
114
115
115
115
114
114
114
115
115
115
115
116
116
116
115
115
115
116
116
116
115
115
115
116
116
116
115
115
115
116
116
116
116
115
115
115
116
116
116
115
115
115
116
116
116
115
115
115
116
116
116
115
115
115
116
117
117
118
119
120
120
121
121
122
122
123
123
123
122
122
121
120
120
120
119
119
118
116
115
114
113
113
113
114
114
114
114
114
114
114
114
114
115
115
115
114
114
114
115
115
115
114
112
109
106
103
101
101
103
107
112
119
126
134
142
152
162
172
181
188
195
203
210
214
209
190
161
127
99
82
79
83
89
92
92
90
90
92
95
97
97
97
98
99
101
103
104
105
106
108
110
113
114
116
118
119
120
121
121
121
122
122
123
123
123
123
122
121
121
120
120
119
117
115
112
110
109
108
107
107
107
106
106
106
106
106
106
107
107
107
107
108
108
108
108
108
109
109
109
109
109
109
110
110
110
110
111
111
111
110
110
111
111
111
111
112
111
111
112
112
112
112
113
113
113
112
112
112
113
113
113
113
114
114
113
113
114
114
114
113
113
113
114
114
114
114
114
114
114
114
114
115
115
115
114
114
114
115
115
115
114
114
114
115
115
115
114
114
114
115
115
115
115
115
115
115
115
115
116
116
116
115
115
115
116
116
116
116
115
115
115
116
116
116
115
115
115
115
116
116
116
115
115
115
116
116
116
115
115
115
116
116
116
116
115
115
116
116
117
118
119
120
120
121
121
122
122
123
123
123
122
122
121
120
120
119
119
118
117
116
115
114
113
113
113
113
114
114
114
114
114
115
115
114
115
115
115
114
114
114
115
115
115
114
112
108
105
102
101
101
103
107
113
120
127
135
144
153
164
173
182
189
196
205
212
214
206
184
153
120
94
81
79
85
90
93
92
90
91
93
95
97
97
97
98
99
101
103
104
105
106
108
110
113
114
116
118
119
120
121
121
121
122
122
123
123
123
123
122
121
121
120
120
119
117
115
112
110
109
108
107
107
107
106
106
106
106
106
106
107
107
107
107
108
108
108
108
108
109
109
109
109
109
109
110
110
110
110
111
111
111
111
111
111
111
112
112
112
111
111
111
111
112
112
112
112
113
113
113
113
112
112
112
113
113
113
113
114
114
114
113
113
114
114
113
113
113
114
114
114
114
115
115
115
114
114
114
115
115
115
115
114
114
114
114
115
115
115
115
115
115
115
115
115
115
115
115
115
115
116
116
116
115
115
115
115
116
116
116
115
115
115
116
116
116
115
115
115
115
116
116
116
116
115
115
115
116
116
116
115
115
115
116
116
116
115
115
115
116
117
117
118
119
120
120
121
121
122
122
123
123
123
122
121
121
120
120
119
119
118
117
115
114
114
113
113
113
113
113
114
114
114
114
114
114
114
115
115
115
114
114
114
115
115
115
114
111
108
105
102
101
102
104
108
114
120
128
135
144
154
164
174
182
189
197
205
213
214
205
183
152
119
93
81
80
85
90
92
92
90
91
93
95
97
97
97
98
99
101
103
104
105
106
108
110
113
115
117
118
119
120
121
121
122
122
122
123
123
123
123
122
121
121
120
119
118
117
115
112
110
109
108
107
107
107
106
106
106
106
106
106
107
107
107
107
108
108
108
108
108
109
109
109
109
109
110
110
110
110
110
111
111
110
110
111
111
111
111
112
112
111
111
112
112
112
112
112
112
113
113
112
112
113
113
113
113
113
113
114
114
114
114
113
113
113
114
114
114
114
114
114
114
114
114
115
115
115
114
114
114
115
115
115
114
114
114
115
115
114
114
114
115
115
115
115
115
115
115
115
115
115
116
116
116
115
115
115
116
116
116
116
115
115
115
116
116
116
115
115
115
115
116
116
116
116
115
115
115
116
116
116
115
115
115
116
116
116
115
115
115
116
116
117
119
120
120
121
121
121
122
122
123
123
123
122
121
121
120
120
119
119
118
116
115
114
114
113
113
113
113
114
114
114
115
115
115
114
114
115
115
115
114
114
114
115
115
115
114
111
108
105
102
101
102
104
108
114
121
128
136
145
155
165
174
182
189
197
206
213
214
204
182
150
117
92
80
80
85
91
93
91
90
90
93
96
97
97
96
97
100
103
104
101
95
86
76
67
59
52
45
39
33
28
25
24
25
31
40
52
65
75
82
86
89
94
102
114
125
133
137
137
136
136
136
138
140
141
141
141
140
140
141
141
142
143
145
146
147
148
148
149
151
154
156
158
158
159
159
161
164
166
168
169
169
169
169
171
172
173
173
173
173
172
172
171
171
171
170
170
169
168
167
166
165
163
162
160
158
156
154
152
150
148
146
145
143
140
137
134
131
128
127
125
123
119
116
112
109
108
107
105
103
100
96
94
93
93
92
89
85
80
76
74
74
76
78
79
80
80
81
82
83
84
85
85
86
87
88
89
89
90
90
91
92
93
93
94
94
95
95
96
96
97
97
98
98
99
99
100
100
101
101
101
102
102
102
103
103
104
104
105
106
107
108
109
110
111
111
112
113
114
114
115
115
114
114
113
113
113
112
112
111
109
108
108
107
108
108
108
108
109
109
109
110
110
109
109
110
110
110
110
110
110
110
111
111
111
109
106
103
100
98
98
100
104
109
116
123
130
139
149
159
169
178
186
193
201
209
212
206
187
157
123
95
79
77
82
88
91
90
89
89
91
94
96
96
96
96
98
99
101
102
104
105
107
109
112
113
115
117
118
119
120
120
121
121
122
122
123
123
122
121
121
120
120
119
118
116
114
112
110
108
107
107
106
106
106
106
106
106
106
106
106
107
107
107
107
107
108
108
108
108
108
108
109
109
109
109
109
110
110
110
110
111
111
110
111
111
111
111
112
112
111
111
111
112
112
112
112
113
113
113
112
112
112
113
113
113
113
114
114
114
113
113
113
114
114
114
113
113
113
114
114
114
114
115
115
115
114
114
114
115
115
115
114
114
114
115
115
115
114
114
114
115
115
115
115
115
115
115
115
116
116
116
115
115
115
115
116
116
116
115
115
115
116
116
116
116
116
115
115
115
116
116
116
116
115
115
115
116
116
116
115
115
115
116
116
116
115
115
115
116
117
117
118
119
120
120
121
121
122
122
123
123
123
122
121
121
120
120
119
119
118
117
115
114
114
113
113
114
114
114
113
113
114
114
114
114
114
115
115
115
114
114
114
115
115
115
114
111
108
105
102
101
101
104
108
114
121
128
136
145
155
165
174
182
189
197
206
213
214
204
181
149
117
92
80
80
85
91
92
91
90
91
93
95
97
97
97
98
99
101
103
104
105
106
108
110
113
115
117
118
119
120
121
121
121
122
122
123
123
123
123
122
121
121
120
120
119
117
114
112
110
108
108
107
107
107
106
106
106
106
106
106
107
107
107
107
108
108
108
108
108
109
109
109
109
109
109
110
110
110
110
111
111
110
110
111
111
111
111
112
112
111
111
111
112
112
112
112
113
113
113
112
112
112
113
113
113
113
114
114
114
114
113
113
113
113
113
114
114
114
114
114
114
114
114
115
115
115
114
114
114
115
115
115
114
114
114
115
115
115
114
114
114
115
115
115
115
116
116
116
115
115
115
116
116
116
115
115
115
116
116
116
116
115
115
115
116
116
116
115
115
115
115
116
116
116
115
115
115
116
116
116
115
115
115
116
116
116
115
115
115
116
116
117
119
120
120
121
121
121
122
122
123
123
123
122
121
121
120
120
119
119
118
117
115
114
114
113
113
114
114
114
113
113
114
114
114
114
114
115
115
115
114
114
114
115
115
115
114
111
108
105
102
101
101
104
108
114
121
128
136
145
155
165
175
183
190
197
206
213
214
204
181
149
116
92
80
80
85
91
92
91
90
91
93
95
97
97
97
98
99
101
103
104
105
106
108
110
113
115
117
118
119
120
121
121
121
122
122
123
123
123
123
122
121
121
120
120
118
116
114
112
110
109
108
107
107
106
106
106
106
106
106
106
107
107
107
107
107
108
108
108
108
108
109
109
109
109
109
110
110
110
110
111
111
110
110
110
111
111
112
112
112
111
111
112
112
112
112
113
113
113
112
112
112
112
113
113
113
113
114
114
114
113
113
113
114
114
113
113
113
114
114
114
114
115
115
115
114
114
114
115
115
114
114
114
115
115
114
114
114
115
115
115
114
114
114
115
115
115
115
116
116
116
115
115
115
116
116
116
115
115
115
116
116
116
115
115
115
116
116
116
115
115
115
116
116
116
115
115
115
116
116
116
115
115
115
116
116
116
115
115
115
116
116
117
119
120
120
121
121
121
122
122
123
123
123
122
122
121
121
120
119
119
118
116
115
114
114
113
113
113
113
113
114
114
114
114
114
114
114
115
115
115
114
114
114
115
115
115
114
111
108
104
102
101
101
104
109
115
121
129
137
146
155
166
175
183
190
198
206
213
214
203
179
147
115
91
80
80
86
91
92
91
90
91
93
96
97
97
97
98
99
101
103
104
105
106
108
110
113
115
117
118
120
121
121
122
122
122
122
123
123
123
123
122
121
121
120
120
118
116
114
112
110
109
108
107
107
106
106
106
106
106
106
106
107
107
107
107
108
108
108
108
108
109
109
109
109
109
110
110
110
110
110
111
111
110
111
111
111
111
112
112
111
111
111
112
112
112
112
113
113
113
113
112
112
112
113
113
113
113
114
114
114
113
113
114
114
114
113
113
114
114
114
114
115
115
115
114
114
114
115
115
115
114
114
114
115
115
115
114
114
114
115
115
115
115
115
115
115
115
115
116
116
116
116
115
115
115
116
116
116
115
115
115
116
116
116
115
115
116
116
116
115
115
115
116
116
116
115
115
115
116
116
116
115
115
115
116
116
116
115
115
115
116
116
117
119
120
120
121
121
121
122
122
123
123
123
122
122
121
120
120
119
118
118
117
115
114
114
113
113
113
114
114
114
114
114
114
114
114
114
115
115
115
114
114
114
115
115
115
113
111
108
104
102
101
101
104
109
116
122
130
138
147
157
168
177
184
191
199
208
214
213
199
172
139
107
87
79
81
87
92
92
90
90
91
94
96
97
97
97
98
100
101
103
104
105
107
109
111
113
115
116
118
120
121
121
122
122
122
122
123
123
123
123
122
121
120
120
119
118
116
114
111
109
108
107
107
107
106
106
106
106
106
106
107
107
107
107
107
108
108
108
108
108
108
109
109
109
109
109
110
110
110
110
111
111
110
111
111
111
111
112
112
111
111
111
112
112
112
112
113
113
113
113
113
112
112
112
113
113
113
113
114
114
114
113
113
113
114
114
113
113
113
114
114
114
114
115
115
115
114
114
115
115
115
114
114
114
115
115
114
114
114
115
115
115
115
115
115
115
115
115
115
115
115
115
116
116
116
115
115
115
116
116
116
115
115
115
115
116
116
116
115
115
115
115
116
116
116
115
115
115
116
116
116
115
115
115
116
116
116
115
115
115
116
116
117
119
119
120
121
121
122
122
123
123
123
123
122
121
120
120
120
119
119
118
116
115
114
113
113
113
114
114
114
114
114
114
115
114
114
114
115
115
115
114
114
114
115
115
115
113
110
107
104
102
101
102
105
110
116
123
131
139
148
158
169
178
185
192
200
208
214
212
197
170
137
106
86
79
82
88
92
92
90
90
91
94
96
97
97
97
98
100
101
103
104
105
107
109
112
114
115
117
118
120
121
121
122
122
122
123
123
123
123
122
122
121
120
120
119
118
116
113
111
110
108
108
107
107
106
106
106
106
106
106
107
107
107
107
107
108
108
108
108
108
109
109
109
109
109
109
110
110
110
110
110
111
111
111
111
111
112
112
112
111
111
111
112
112
112
112
113
113
113
113
112
112
112
113
113
113
113
114
114
114
113
113
113
114
114
113
113
113
114
114
114
114
115
115
115
114
114
115
115
115
114
114
114
115
115
115
114
114
114
115
115
115
115
115
115
115
115
115
116
116
116
115
115
115
116
116
116
115
115
115
116
116
116
116
115
115
116
116
116
115
115
115
116
116
116
115
115
115
116
116
116
115
115
115
116
116
116
115
115
115
116
116
117
119
119
120
121
121
122
122
123
123
123
123
122
121
120
120
120
119
119
118
116
115
114
113
113
113
114
114
114
114
114
115
115
114
114
114
115
115
115
114
114
114
115
115
115
113
110
107
104
102
101
102
105
111
117
124
131
140
149
159
169
178
185
192
200
209
214
211
196
168
135
104
85
79
82
88
92
92
90
90
91
94
97
97
97
96
98
101
103
103
99
91
81
71
63
55
49
42
36
30
26
24
24
27
34
44
57
70
79
84
87
90
96
106
118
129
136
138
137
136
136
137
139
140
141
141
140
140
141
141
142
142
144
146
147
148
148
149
150
152
155
157
158
158
159
160
162
165
167
168
169
169
169
170
171
173
174
174
173
172
172
171
171
171
171
170
169
168
167
167
165
164
162
161
159
157
155
153
151
149
147
145
144
142
139
136
133
130
128
126
124
122
118
115
111
109
107
106
104
101
98
95
94
93
93
91
88
83
79
75
74
75
77
78
79
79
80
81
83
84
85
85
86
86
87
88
89
90
90
91
91
92
93
93
94
94
95
96
96
97
97
98
98
98
99
99
100
100
101
101
102
102
102
102
103
103
103
104
104
105
106
107
108
110
111
111
112
113
114
114
115
115
114
114
113
113
113
113
112
112
111
109
108
108
108
108
108
108
108
109
109
109
109
109
109
109
110
110
110
110
110
110
111
112
112
111
108
105
102
99
98
98
101
106
112
119
126
134
143
153
163
173
181
188
196
205
211
211
199
174
141
109
87
78
79
85
89
90
89
88
90
92
95
96
96
96
97
98
100
102
103
104
106
108
110
112
114
116
117
119
120
121
121
121
122
122
122
122
122
122
121
121
120
120
119
117
115
113
111
109
108
107
106
106
106
106
105
105
106
106
106
106
107
107
107
107
108
108
108
108
108
108
109
109
109
109
109
110
110
110
110
111
111
110
110
111
111
111
111
112
112
112
112
112
112
112
112
112
113
113
112
112
112
113
113
113
113
114
114
113
113
113
114
114
114
113
113
114
114
114
114
115
115
115
114
114
114
115
115
115
114
114
115
115
115
114
114
114
115
115
115
114
114
114
115
115
115
115
116
116
116
115
115
115
116
116
116
115
115
115
116
116
116
115
115
115
116
116
116
115
115
115
116
116
116
115
115
115
116
116
116
115
115
115
116
116
116
115
115
115
116
116
117
118
120
120
121
121
121
122
122
123
123
123
122
121
121
120
119
119
119
118
117
115
114
114
113
114
114
113
113
113
114
114
114
114
114
115
115
115
115
114
114
114
115
115
115
113
110
107
104
101
101
102
105
110
116
123
131
139
148
159
169
178
185
192
200
209
214
212
197
170
136
105
86
79
82
88
92
92
91
90
92
94
96
97
97
97
98
100
101
103
104
105
107
109
112
114
115
117
118
120
121
121
122
122
122
122
123
123
123
123
122
121
121
120
119
118
116
114
111
109
108
107
107
107
106
106
106
106
106
106
107
107
107
107
107
108
108
108
108
108
109
109
109
109
109
109
110
110
110
110
111
111
110
110
111
111
111
111
112
112
112
112
112
112
113
113
113
112
112
112
112
113
113
113
113
114
114
114
113
113
113
114
114
113
113
113
114
114
114
114
115
115
115
114
114
114
115
115
115
114
114
115
115
115
114
114
114
115
115
116
118
119
119
120
120
121
121
122
122
123
122
122
121
120
119
119
119
118
118
116
115
114
113
113
113
114
114
114
113
113
114
114
113
113
114
114
114
114
114
114
114
115
115
115
114
111
108
105
102
101
101
103
108
114
121
128
136
145
155
165
175
183
190
197
206
213
213
203
180
147
115
91
79
80
85
91
92
91
90
90
93
95
97
97
97
98
99
101
103
104
105
106
108
110
113
115
117
118
119
120
121
121
121
122
122
123
123
123
123
122
121
121
120
119
118
116
114
112
110
109
108
107
107
106
106
106
106
106
106
106
107
107
107
107
108
108
108
108
108
109
109
109
109
109
109
110
110
110
110
111
111
110
110
110
111
111
111
111
111
112
112
112
112
112
113
113
113
112
112
112
112
113
113
113
113
114
114
114
113
113
113
114
114
113
113
113
114
114
114
114
115
115
115
114
114
115
115
115
114
114
114
115
115
115
114
114
114
115
116
117
118
119
119
120
120
121
121
122
123
123
122
121
121
120
119
119
118
118
116
115
114
113
113
113
113
114
114
113
113
114
114
114
113
113
113
114
114
114
114
114
114
115
115
114
112
109
105
103
101
101
102
106
112
119
126
134
142
152
162
172
181
188
195
203
211
214
208
189
159
125
97
81
78
83
89
92
92
90
90
92
95
97
97
97
98
99
100
102
103
105
106
108
110
113
114
116
118
119
120
121
121
121
122
122
123
123
123
123
122
121
121
120
120
119
117
115
113
110
109
108
107
107
106
106
106
106
106
106
106
107
107
107
107
107
108
108
108
108
109
109
109
109
109
109
110
110
110
110
111
111
110
110
110
111
111
112
112
112
111
111
112
112
112
112
113
113
113
112
112
112
113
113
113
113
113
113
113
114
114
113
113
114
114
114
113
113
113
114
114
114
114
115
115
115
114
114
114
114
114
114
115
115
115
114
114
114
115
116
117
118
119
119
120
120
121
121
122
122
123
122
122
121
120
119
119
118
118
117
116
115
114
113
113
113
114
114
113
113
113
114
114
113
113
113
114
114
114
114
114
114
115
115
115
113
110
107
104
101
100
101
105
110
116
123
131
139
148
159
169
178
185
192
200
209
214
211
195
167
134
104
85
79
82
88
92
92
90
90
91
94
96
97
97
97
98
100
101
103
104
105
107
109
112
114
115
117
118
120
121
121
122
122
122
122
123
123
123
122
121
121
120
120
119
118
116
113
111
109
108
107
107
107
106
106
106
106
106
106
107
107
107
107
107
108
108
108
108
108
109
109
109
109
109
109
110
110
110
110
111
111
110
111
111
111
111
112
112
111
111
111
112
112
113
113
113
112
112
112
113
113
113
112
112
112
112
112
113
113
114
114
114
113
113
113
113
114
114
114
114
115
115
115
114
114
114
115
115
114
114
114
115
115
114
114
114
115
115
116
118
119
119
120
120
121
121
122
122
123
122
122
121
120
119
119
119
118
118
116
115
114
113
113
113
113
114
114
114
114
114
114
113
113
113
114
114
115
114
114
114
114
115
115
114
111
108
104
102
101
101
104
108
114
121
128
136
145
155
165
175
183
190
198
206
213
213
202
178
146
114
91
80
80
86
91
92
91
90
91
93
95
97
97
97
98
99
101
103
104
105
106
108
110
113
115
117
118
120
121
121
122
122
122
122
123
123
123
123
122
121
121
120
119
118
116
114
112
110
108
108
107
107
107
106
106
106
106
106
106
107
107
107
107
108
108
108
108
108
109
109
109
109
110
110
109
109
110
110
110
110
111
111
111
111
111
112
112
112
111
111
111
112
112
112
112
113
113
112
113
113
113
113
113
113
113
113
113
114
114
114
113
113
113
114
114
114
114
114
114
114
114
114
114
115
115
115
114
114
114
115
115
115
114
114
114
115
115
116
117
118
119
120
120
121
121
122
122
122
122
122
121
120
120
119
119
118
118
117
116
115
114
113
113
113
113
113
113
114
114
114
113
113
113
114
114
114
114
114
114
115
115
115
114
112
109
105
102
101
101
103
107
112
119
126
133
142
152
162
172
181
188
195
203
211
214
208
190
159
126
97
81
78
83
89
92
92
91
91
92
95
97
97
97
97
99
101
102
104
105
106
108
110
112
114
116
117
119
120
121
121
121
122
122
123
123
123
123
122
121
121
120
120
119
117
115
113
110
109
108
107
107
107
106
106
106
106
106
106
107
107
107
107
107
108
108
108
108
108
109
109
109
109
109
109
109
110
110
110
110
111
111
111
111
111
111
112
112
112
111
111
112
112
112
112
112
112
112
113
113
113
113
113
113
113
113
114
114
114
113
113
113
113
114
114
114
114
114
115
115
115
114
114
114
115
115
115
114
114
114
115
116
115
113
108
105
106
112
121
132
143
151
158
164
172
181
188
194
195
193
186
176
163
150
140
133
129
127
122
115
104
93
85
81
81
83
84
84
82
81
80
80
81
81
81
81
81
81
80
78
77
76
76
76
75
73
71
69
68
67
67
66
65
62
60
59
58
58
57
57
56
55
54
54
54
55
56
56
57
57
58
59
59
60
61
62
63
65
66
68
70
72
74
75
77
79
81
83
85
87
89
91
94
98
100
102
104
106
108
112
116
120
122
123
124
126
129
133
136
137
137
137
140
146
155
163
168
170
168
166
163
163
162
162
160
158
157
156
155
155
154
153
151
150
150
149
148
147
146
146
145
144
144
143
142
141
141
140
140
139
139
138
137
137
136
136
135
135
134
134
133
133
133
132
132
131
131
130
130
130
130
129
129
128
128
128
128
127
127
127
127
126
126
126
125
125
125
125
125
124
124
124
124
124
123
123
123
123
123
123
122
122
122
121
121
122
122
124
125
125
126
126
126
127
127
127
127
127
126
125
124
124
123
123
122
121
120
119
117
117
116
116
117
117
117
116
117
117
117
116
116
116
117
117
117
116
116
116
117
117
117
115
112
109
105
103
102
104
107
112
118
125
133
141
151
161
171
180
187
194
202
210
215
212
196
167
133
103
85
79
83
89
93
93
91
91
92
95
97
98
98
98
99
101
102
104
105
106
108
110
112
114
116
117
119
120
122
122
122
122
123
123
123
123
123
123
122
122
121
121
120
118
116
114
112
110
109
108
107
107
106
106
106
106
106
106
107
107
107
107
108
108
108
108
109
109
109
109
110
109
109
110
110
110
110
111
111
110
111
111
111
111
112
112
111
111
111
112
112
112
112
113
113
113
113
113
112
112
112
113
113
113
113
114
114
114
113
113
113
114
114
113
113
113
114
114
114
114
115
115
115
114
114
115
115
114
114
114
115
115
115
114
114
115
115
116
118
119
119
120
120
120
121
122
122
123
122
122
121
120
119
119
119
118
118
116
115
114
113
113
113
114
114
114
113
113
114
114
114
113
113
113
114
114
114
114
114
115
115
115
114
111
108
105
102
101
101
104
108
114
120
128
136
145
155
165
174
182
190
197
206
213
214
203
180
148
116
91
80
80
85
91
92
91
90
91
93
95
97
97
97
98
99
101
103
104
105
106
108
110
113
115
117
118
119
120
121
121
121
122
122
123
123
123
123
122
121
121
120
119
118
116
114
112
110
109
108
107
107
106
106
106
106
106
106
106
107
107
107
107
108
108
108
108
108
108
109
109
109
109
109
110
110
110
110
110
111
111
111
111
111
111
112
112
112
111
111
112
112
112
112
113
113
113
113
113
112
112
112
113
113
113
113
114
114
114
113
113
114
114
114
113
113
113
114
114
114
114
115
115
115
115
114
114
114
114
115
115
115
115
114
114
115
115
116
117
118
119
119
120
120
121
121
122
122
122
122
121
120
120
119
119
118
118
117
116
115
114
113
113
113
114
114
114
114
114
113
113
113
114
114
114
114
114
114
114
115
115
115
114
112
109
105
102
101
101
102
106
112
119
126
134
142
151
162
172
180
188
195
203
211
214
208
189
159
125
97
81
78
83
89
92
92
90
90
92
95
97
97
97
98
99
101
102
104
105
106
108
110
112
114
116
117
119
120
121
121
121
122
122
123
123
123
123
122
121
121
120
120
119
117
115
113
111
109
108
107
107
107
106
106
106
106
106
106
107
107
107
107
107
108
108
108
108
108
109
109
109
109
109
109
110
110
110
110
111
111
110
111
111
111
111
112
112
111
111
111
112
112
112
112
113
113
113
113
112
112
112
113
113
113
113
114
114
114
113
113
114
114
114
113
113
113
114
114
114
114
114
114
114
114
115
115
115
114
114
114
115
115
114
114
114
115
115
116
118
118
119
120
120
121
121
122
122
122
122
121
121
120
119
119
118
118
117
116
115
114
113
113
113
114
114
113
113
113
114
114
113
113
113
114
114
114
114
114
114
115
115
115
113
110
107
104
101
100
101
105
110
116
123
131
139
148
159
169
178
185
192
200
208
214
211
196
168
135
104
85
79
82
88
92
92
90
90
91
94
96
97
97
97
98
100
101
103
104
105
107
109
112
114
115
117
118
120
121
121
122
122
122
123
123
123
123
122
122
121
120
120
119
118
116
113
111
109
108
107
107
107
106
106
106
106
106
106
107
107
107
107
107
108
108
108
108
108
109
109
109
109
110
109
109
110
110
110
110
111
111
111
111
111
111
112
112
112
111
111
111
112
112
112
112
113
113
113
112
112
112
113
113
113
113
114
114
114
113
113
113
113
114
114
114
114
113
113
113
114
114
114
114
115
115
115
114
114
114
115
115
115
114
114
114
115
115
116
118
119
119
120
120
120
121
122
122
122
122
121
121
120
119
119
119
118
117
116
115
114
113
113
113
114
114
113
113
114
114
114
113
113
113
114
114
114
114
114
114
115
115
115
114
111
108
104
102
101
101
104
109
115
121
129
137
146
156
166
175
183
190
198
207
213
213
201
176
144
112
89
79
80
86
91
92
91
90
91
93
95
96
97
97
98
99
101
103
104
105
107
109
111
113
115
116
118
120
121
121
121
121
122
122
123
123
123
123
122
121
121
120
119
118
116
114
111
110
108
108
107
107
106
106
106
106
106
106
107
107
107
107
107
108
108
108
108
108
109
109
109
109
110
109
109
110
110
110
110
111
111
111
111
111
112
112
112
112
111
111
111
112
112
112
112
113
113
112
112
112
113
113
113
113
113
113
113
113
114
113
113
113
114
114
114
114
114
114
114
114
114
115
115
115
114
114
114
114
114
114
115
115
115
114
114
114
115
116
117
118
119
119
120
120
121
122
122
122
122
121
121
120
119
119
119
118
117
116
115
114
113
113
113
114
114
113
113
113
114
114
113
113
113
114
114
114
114
114
114
115
115
115
114
111
108
105
102
101
101
103
107
113
119
127
134
143
153
163
173
181
188
195
203
211
214
207
187
156
123
95
81
79
84
90
93
92
90
91
92
95
97
97
97
98
99
101
103
104
105
106
108
110
113
115
116
118
119
120
121
121
121
122
122
123
123
123
123
122
121
121
120
119
118
117
115
112
110
109
108
107
107
107
106
106
106
106
106
106
107
107
107
107
107
108
108
108
108
108
109
109
109
109
109
110
110
110
110
110
111
111
111
111
111
111
112
112
112
111
111
112
112
112
112
113
113
113
112
112
112
113
113
113
113
114
114
114
113
113
113
114
114
114
113
113
113
114
114
114
114
115
115
115
115
114
114
114
115
115
115
114
114
114
115
115
114
111
104
94
84
75
67
59
53
46
40
35
32
31
33
38
47
60
72
83
89
93
95
100
109
120
131
139
142
142
141
140
141
143
144
145
145
144
144
144
145
145
146
147
148
150
151
151
151
152
154
156
159
160
161
161
162
163
166
168
170
171
171
171
171
173
174
175
175
175
174
174
173
173
173
173
172
171
170
169
169
167
166
164
163
161
159
157
155
153
151
149
147
146
144
142
139
136
132
130
128
126
124
121
117
113
111
109
108
107
104
101
98
95
94
93
93
91
87
82
77
75
75
76
78
79
80
80
81
82
83
84
85
86
86
87
88
89
89
90
91
92
92
93
93
94
94
95
95
96
97
97
98
98
99
99
100
100
100
100
101
101
102
102
103
103
103
104
104
104
104
105
105
105
105
106
106
106
107
107
107
107
107
108
108
108
108
108
109
109
109
109
109
109
110
110
110
110
111
111
110
111
111
111
111
112
112
111
111
112
112
113
115
116
117
117
118
118
119
119
120
120
120
120
119
118
117
117
117
116
116
114
113
112
111
111
111
111
112
112
112
112
113
113
112
112
112
113
113
113
113
113
113
114
114
114
112
109
106
103
100
100
101
104
109
115
122
130
138
147
158
168
177
184
191
199
208
214
211
196
169
135
105
85
78
81
87
91
92
90
90
91
93
96
97
97
97
98
100
101
103
104
105
107
109
111
113
115
116
118
120
121
121
121
121
122
122
123
123
123
122
121
121
120
120
119
117
115
113
111
109
108
107
107
107
106
106
106
106
106
106
106
107
107
107
107
108
108
108
108
108
109
109
109
109
109
109
110
110
110
110
110
111
111
111
111
111
112
112
112
111
111
112
112
112
112
113
113
113
113
112
112
112
113
113
113
113
114
114
114
113
113
113
113
114
114
114
114
113
113
113
114
114
114
114
115
115
115
114
114
114
114
115
115
115
114
114
114
115
115
116
118
119
119
120
120
120
121
121
122
122
122
121
121
120
120
119
119
118
118
116
115
114
113
113
113
114
114
114
113
113
114
114
113
113
113
114
114
114
113
113
114
115
115
115
114
111
108
104
102
101
101
104
109
115
121
129
137
146
156
166
175
183
190
198
207
213
213
201
175
143
111
88
79
80
86
91
92
91
90
91
93
95
97
97
97
98
100
101
103
104
105
107
109
111
113
115
117
118
120
121
121
122
122
122
122
123
123
123
123
122
121
121
120
119
118
116
114
111
110
108
108
107
107
107
106
106
106
106
106
107
107
107
107
107
108
108
108
108
108
109
109
109
109
109
110
110
110
110
110
111
111
111
111
111
111
111
111
111
111
111
111
112
112
112
112
113
113
113
112
112
112
113
113
113
113
114
114
114
113
113
113
114
114
113
113
113
114
114
114
114
115
115
114
114
114
115
115
115
114
114
114
115
115
115
114
114
115
115
116
117
118
119
119
120
120
121
122
122
123
123
122
121
120
120
119
119
118
118
117
115
114
114
113
113
114
114
113
113
113
114
114
113
113
113
113
114
114
114
114
114
115
115
115
114
111
108
105
102
101
101
103
107
113
120
127
135
144
153
164
173
181
189
196
205
212
214
205
184
152
119
94
80
79
84
90
92
92
90
91
93
95
97
97
97
98
99
101
103
104
105
106
108
110
113
115
116
118
119
120
121
121
121
122
122
123
123
123
123
122
121
121
120
120
119
117
115
112
110
109
108
107
107
107
106
106
105
105
106
106
107
107
107
107
108
108
108
108
108
109
109
109
109
109
110
110
110
110
110
111
111
111
110
110
111
111
111
111
111
111
112
112
112
112
113
113
113
112
112
113
112
112
112
113
113
113
113
114
114
114
114
114
114
113
113
113
114
114
114
114
114
115
115
115
115
114
114
114
115
115
115
114
114
114
115
115
114
110
103
93
83
74
66
59
52
46
40
35
32
31
33
39
48
61
74
84
90
93
95
100
109
121
132
140
143
142
141
140
141
143
144
145
144
144
144
144
145
145
146
147
148
150
151
151
152
153
155
157
159
161
161
161
162
164
166
169
170
171
171
171
172
173
174
175
175
175
174
173
173
173
173
172
172
171
170
170
169
167
166
164
163
161
159
157
155
153
151
149
147
145
143
141
138
135
132
130
128
126
124
121
117
113
110
109
108
106
104
101
97
95
94
93
93
90
86
81
77
75
75
76
78
79
80
80
81
82
84
85
85
86
86
87
88
89
90
90
91
92
92
93
94
94
95
95
96
96
97
97
98
98
99
99
99
100
100
101
101
102
102
102
103
103
104
104
104
104
105
105
105
105
106
106
106
107
107
107
107
107
108
108
108
108
108
109
109
109
109
109
110
110
110
110
110
111
111
111
111
111
111
111
112
112
111
111
111
112
113
114
115
116
117
117
118
118
119
119
120
120
120
120
119
118
117
117
116
116
115
114
113
112
111
111
111
112
112
112
112
113
113
113
112
112
113
113
113
113
113
113
113
114
114
113
111
109
105
102
100
100
101
105
110
116
123
131
139
149
159
169
178
185
192
200
209
214
210
194
165
131
101
83
78
82
88
92
92
90
89
91
94
96
96
96
97
98
100
102
103
104
105
107
109
112
114
115
117
118
120
121
121
122
122
122
122
123
123
123
122
121
121
120
120
119
117
115
113
111
109
108
107
107
107
106
106
106
106
106
106
106
107
107
107
107
108
108
108
108
109
109
109
109
110
110
109
109
110
110
110
110
111
111
111
111
111
111
112
112
112
111
111
111
112
112
112
112
113
113
113
112
112
113
113
113
113
113
113
113
114
114
114
113
113
113
114
114
114
114
114
114
114
114
115
115
115
114
114
115
115
115
114
114
114
114
115
115
112
106
97
87
77
68
61
54
48
42
37
33
31
32
36
44
55
68
80
87
92
94
98
106
117
128
137
142
142
141
140
141
142
144
145
145
144
144
144
144
145
145
146
148
149
150
151
151
152
153
156
158
160
161
161
162
163
165
168
170
171
171
171
171
172
173
175
175
175
175
174
174
173
173
172
172
171
170
169
169
168
166
165
163
161
160
158
156
154
151
149
147
146
144
142
140
136
133
131
128
127
125
122
118
114
111
109
108
106
105
102
99
96
94
94
93
91
88
83
78
75
75
76
77
79
80
81
81
82
83
84
85
86
86
87
88
89
90
90
91
91
92
93
93
94
94
95
95
96
97
97
98
98
98
99
99
100
100
101
101
102
102
102
102
103
103
104
104
104
104
105
105
105
106
106
106
106
107
107
107
107
108
108
108
108
108
109
109
109
109
109
109
110
110
110
110
111
111
110
111
111
111
111
112
112
112
111
111
111
112
113
114
116
117
117
118
118
119
119
120
120
120
119
119
118
118
117
117
116
116
114
113
112
112
111
111
111
111
112
112
112
112
112
112
113
113
113
113
113
113
112
113
114
114
114
113
110
107
103
101
100
100
103
108
114
120
128
136
145
154
165
174
182
189
197
206
212
213
201
177
145
113
89
79
79
85
90
91
90
90
91
93
96
97
97
97
97
99
101
102
104
105
106
108
110
113
115
117
118
119
120
121
121
121
122
122
123
123
123
122
122
121
120
120
119
118
116
114
111
110
108
108
107
107
107
106
106
105
106
106
106
106
107
107
107
107
108
108
108
108
108
109
109
109
109
109
109
110
110
110
110
111
111
110
111
111
111
111
112
112
111
111
111
112
112
112
112
113
113
113
112
112
112
112
113
113
113
113
114
114
114
114
113
113
113
114
114
114
114
114
114
114
114
115
115
115
114
114
114
115
115
115
114
114
114
115
115
114
108
100
90
80
71
63
56
50
43
38
33
31
31
34
41
51
64
76
85
91
93
96
102
112
124
134
141
143
142
140
140
141
143
144
145
145
144
144
144
144
145
146
147
149
150
151
151
152
153
155
158
160
161
161
162
163
164
167
169
170
171
171
171
172
173
175
175
175
175
174
173
173
173
173
172
172
171
170
169
168
167
165
164
162
160
158
157
155
153
150
148
146
144
142
140
137
134
131
129
127
125
123
119
116
112
110
108
107
106
103
100
96
94
93
93
92
89
84
80
76
75
76
77
79
80
80
80
81
82
84
85
86
86
87
88
88
89
90
91
91
92
92
93
94
94
94
95
96
96
97
97
98
98
99
99
100
100
101
101
101
101
102
102
102
103
103
104
104
104
105
105
105
105
106
106
106
107
107
107
107
107
108
108
108
108
108
109
109
109
109
109
110
110
110
110
111
111
111
110
110
110
111
111
112
112
111
111
111
112
113
114
115
116
117
117
118
118
119
120
120
121
120
120
119
118
117
117
116
116
115
114
113
112
111
111
111
111
112
112
112
112
113
113
112
112
112
113
113
113
113
113
114
114
114
113
111
108
104
102
100
100
102
106
111
118
125
133
142
151
162
171
180
187
194
202
210
214
207
188
158
124
96
81
78
83
89
92
91
90
90
92
95
96
97
97
97
98
100
102
103
105
106
108
110
112
114
116
117
119
120
121
121
121
122
122
123
123
123
123
122
121
121
120
120
118
116
114
112
110
108
107
107
107
106
106
106
106
106
106
106
107
107
107
107
107
108
108
108
108
108
109
109
109
109
110
109
109
110
110
110
110
111
111
111
111
111
111
112
112
112
111
111
111
112
112
112
112
113
113
113
112
112
113
113
113
113
114
114
114
114
114
114
113
113
113
114
114
114
114
114
114
114
114
115
115
114
114
114
115
115
115
114
114
114
115
115
115
111
104
95
85
76
67
60
53
46
40
35
32
31
33
38
47
59
72
82
89
92
95
100
108
120
131
139
143
142
141
140
141
143
144
145
144
144
144
144
145
145
146
147
148
149
150
151
151
152
154
156
159
160
161
161
162
163
166
168
170
171
171
171
171
172
174
175
176
175
174
174
173
173
173
172
172
171
170
169
169
167
166
164
163
161
159
157
155
153
151
149
148
146
144
142
139
136
132
130
128
126
124
121
117
113
110
109
107
106
104
101
98
95
94
93
93
91
87
82
78
75
75
76
78
79
80
80
81
82
84
85
85
86
86
87
88
89
89
90
91
91
92
93
93
94
95
95
96
96
97
97
98
98
98
99
99
100
100
101
101
102
102
102
102
103
103
104
104
104
104
105
105
105
105
106
106
106
107
107
107
107
108
108
108
108
108
109
109
109
109
110
110
109
109
110
110
110
110
111
111
111
111
111
111
112
112
111
111
112
112
113
115
116
117
117
118
118
119
119
120
120
120
119
119
118
118
117
117
116
116
114
113
112
111
111
111
112
112
112
112
113
113
113
112
112
112
113
113
113
113
113
113
114
114
114
112
109
106
103
101
100
101
104
109
115
122
130
138
147
158
168
177
184
191
199
208
214
211
196
168
135
104
84
78
81
87
91
92
90
90
91
93
96
97
97
97
98
100
101
103
104
105
107
109
111
113
115
116
118
120
121
121
121
122
122
122
123
123
123
122
122
121
120
120
119
117
115
113
111
109
108
107
107
107
106
106
106
106
106
106
106
107
107
107
107
107
108
108
108
108
108
109
109
109
109
109
110
110
110
110
111
111
110
110
110
111
111
112
112
112
111
111
112
112
112
112
113
113
113
112
112
112
112
113
113
113
113
114
114
114
113
113
113
114
114
113
113
113
114
114
114
114
115
115
115
114
114
114
115
115
115
114
114
114
115
115
115
112
106
97
88
78
69
61
54
48
42
37
33
31
31
35
43
54
67
79
87
92
94
98
105
116
127
137
142
143
141
140
141
142
144
145
145
144
144
144
144
145
145
146
148
149
150
151
151
152
153
156
158
160
161
161
161
162
164
167
169
171
171
171
171
172
173
174
175
175
174
174
173
173
173
172
172
171
170
170
169
168
166
165
163
161
160
158
156
154
152
150
148
146
144
142
140
137
133
131
128
127
125
122
119
115
112
110
108
107
105
102
99
96
94
93
93
91
88
83
79
76
75
76
77
79
80
81
81
82
83
84
85
86
86
87
88
89
89
90
90
91
92
93
93
94
94
95
95
96
96
97
97
98
98
99
99
100
100
101
101
101
102
102
103
103
103
103
104
104
105
105
105
105
106
106
106
106
107
107
107
107
107
108
108
108
108
108
109
109
109
109
109
109
110
110
110
110
110
110
110
111
111
111
111
111
111
112
112
110
106
98
88
78
69
61
54
47
41
35
31
29
29
32
39
50
62
74
83
89
91
95
102
112
124
134
139
141
140
139
139
140
142
143
143
143
143
143
143
144
144
145
146
148
149
150
150
151
152
154
157
159
160
161
161
162
164
167
169
170
170
170
170
171
173
174
175
175
174
173
173
172
172
172
172
171
170
169
168
167
166
165
163
161
159
158
156
154
152
149
148
146
145
142
139
136
132
130
128
127
125
122
118
114
111
109
107
106
105
102
99
96
94
93
93
91
88
83
79
76
75
76
77
79
80
80
81
81
82
84
85
86
86
87
88
89
89
90
90
91
92
93
93
94
94
95
95
96
96
97
97
98
98
99
99
100
100
101
101
101
101
102
102
103
103
104
104
104
105
105
105
105
106
106
106
106
107
107
107
107
107
108
108
108
108
108
109
109
109
109
109
109
110
110
110
110
110
110
110
111
111
111
111
111
111
112
112
110
105
97
88
78
69
61
54
47
41
35
31
29
29
32
39
50
63
75
84
89
92
95
102
112
124
134
139
141
140
139
139
140
142
143
143
143
143
143
143
144
144
145
146
148
149
150
150
151
152
154
157
159
160
160
161
162
164
167
169
170
170
170
170
171
173
174
175
175
174
173
173
172
172
172
171
171
170
169
168
167
166
165
163
161
159
158
156
154
151
149
147
146
144
143
140
136
133
130
128
127
125
122
118
114
111
109
107
106
105
102
99
96
94
93
93
91
88
83
79
76
75
76
77
79
80
80
81
82
82
84
85
86
86
87
88
89
89
90
90
91
92
93
93
94
94
94
95
95
96
97
97
98
98
99
99
100
100
101
101
101
101
102
102
102
103
103
104
104
104
105
105
105
105
106
106
106
106
107
107
107
107
108
108
108
108
108
109
109
109
109
109
109
109
110
110
110
110
110
111
111
111
111
111
111
111
112
112
110
105
97
88
78
69
61
54
47
41
35
31
29
29
32
39
50
63
75
84
89
92
95
102
112
124
134
139
141
140
139
139
141
142
143
144
143
143
143
143
143
144
145
146
148
149
150
150
151
152
154
157
159
160
160
161
162
164
166
168
170
170
170
170
171
173
174
175
175
174
173
173
173
173
172
172
171
170
169
169
168
166
165
163
161
160
158
156
154
151
149
147
146
144
143
140
136
133
130
128
127
125
122
118
114
111
109
107
106
105
102
99
96
94
93
93
91
88
83
79
76
75
76
77
79
80
80
81
81
83
84
85
85
86
86
87
88
89
90
91
91
92
92
93
94
94
95
95
96
96
97
97
98
98
99
99
99
100
100
101
101
102
102
103
103
103
103
103
104
104
104
105
105
106
106
106
106
107
107
107
107
107
108
108
108
108
108
109
109
109
109
109
109
109
110
110
110
110
110
110
110
110
110
110
110
111
112
112
110
105
97
88
78
69
61
54
47
41
35
31
29
29
32
39
50
63
75
84
89
92
95
102
112
124
134
140
141
140
139
139
141
142
143
144
143
143
143
143
144
144
145
146
148
149
150
150
151
152
155
157
159
160
160
161
162
164
167
169
170
170
170
170
171
172
174
175
175
174
173
173
172
172
172
172
171
170
169
169
168
166
165
163
161
160
158
156
154
151
149
147
146
144
143
140
136
133
130
128
127
125
122
118
115
111
109
108
106
105
102
99
96
94
94
93
91
88
83
79
76
75
76
77
79
80
81
81
82
83
84
85
85
86
87
88
88
89
90
